{"2000-01-04": 0.0, "2000-01-05": -0.007267372920605308, "2000-01-06": -0.0024359202683901238, "2000-01-07": 0.0, "2000-01-10": 0.0, "2000-01-11": 0.0, "2000-01-12": 0.003662871021040681, "2000-01-13": 0.0024458908760984777, "2000-01-14": 0.017027376439592068, "2000-01-17": 0.015548838566146195, "2000-01-18": 0.0011752533912059437, "2000-01-19": 0.0011854319340034447, "2000-01-20": 0.0070453983139320275, "2000-01-21": 0.003504176626290656, "2000-01-24": 0.0034796078906593753, "2000-01-25": 0.008115273834865322, "2000-01-26": 0.00230474177152451, "2000-01-27": -0.016062615805087943, "2000-01-28": -0.0361262223019122, "2000-01-31": -0.009674591435428814, "2000-02-01": -0.017089677784454804, "2000-02-02": 0.009939026436670328, "2000-02-03": 0.0368982028149496, "2000-02-04": 0.01423678439970777, "2000-02-07": 0.028061221325394792, "2000-02-08": 0.0011465750998433943, "2000-02-09": 0.011359438328768734, "2000-02-10": 0.0011207327531246314, "2000-02-11": 0.0022505463321351726, "2000-02-14": 0.026867714829984735, "2000-02-15": 0.0, "2000-02-16": 0.0010987572781255839, "2000-02-17": 0.06535586809926008, "2000-02-18": 0.009201038119695415, "2000-02-21": 0.028372280314199916, "2000-02-22": -0.0009930485501583597, "2000-02-23": 0.033539964891388774, "2000-02-24": 0.06773882747704629, "2000-02-25": 0.003574860078221498, "2000-02-28": -0.03116342037659514, "2000-02-29": -0.04136268383074426, "2000-03-01": -0.02492623585548348, "2000-03-02": -0.005895501035256934, "2000-03-03": 0.03659908691248592, "2000-03-06": 0.0114418894156465, "2000-03-07": 0.009440095766980905, "2000-03-08": -0.018694080679908742, "2000-03-09": -0.0018999117879111571, "2000-03-10": 0.0009518174253322353, "2000-03-13": 0.011440959971273701, "2000-03-14": -0.01697184208977065, "2000-03-15": -0.01916832161343618, "2000-03-16": -0.038130254857753565, "2000-03-17": 0.03252446543638432, "2000-03-20": 0.0019641487634736166, "2000-03-21": -0.02651902704054865, "2000-03-22": 0.005043825148671743, "2000-03-23": 0.023098104482356385, "2000-03-24": -0.0009890400882516248, "2000-03-27": 0.001969674978130831, "2000-03-28": 0.009799900836975572, "2000-03-29": 0.000968674799871394, "2000-03-30": 0.014553364619935172, "2000-03-31": 0.006695827017966893, "2000-04-03": 0.0018938561633048412, "2000-04-04": 0.0019010170592062003, "2000-04-05": 0.001887851442547106, "2000-04-06": 0.007554940131438981, "2000-04-07": -0.0009348733335570181, "2000-04-10": 0.0009357481395395606, "2000-04-11": -0.0074982909919069085, "2000-04-12": -0.0056612634912469595, "2000-04-13": -0.006651291123160097, "2000-04-14": -0.013380980928972441, "2000-04-17": -0.04651755760402565, "2000-04-18": 0.016262601451219716, "2000-04-19": 0.0, "2000-04-20": 0.0, "2000-04-21": 0.0, "2000-04-24": 0.0, "2000-04-25": -0.000997900819029951, "2000-04-26": -0.0009984506107233448, "2000-04-27": -0.0030089166758953123, "2000-04-28": -0.002015532735254233, "2000-05-01": 0.0, "2000-05-02": -0.0020094285630606334, "2000-05-03": -0.0010062303027066344, "2000-05-04": 0.0, "2000-05-05": -0.0020255952924320697, "2000-05-08": -0.0020193674411435047, "2000-05-09": -0.007102920879128227, "2000-05-10": -0.011240025099218065, "2000-05-11": -0.004121960436215155, "2000-05-12": 0.0, "2000-05-15": 0.0, "2000-05-16": 0.0010347553295833034, "2000-05-17": -0.0010336857177778436, "2000-05-18": -0.0010455834911184958, "2000-05-19": 0.0, "2000-05-22": 0.0, "2000-05-23": 0.0176524366315578, "2000-05-24": 0.006128810684689734, "2000-05-25": 0.04158485178211335, "2000-05-26": -0.0029244376511033954, "2000-05-29": 0.0, "2000-05-30": -0.001958396049323241, "2000-05-31": -0.007828746564880307, "2000-06-01": -0.002951113945323658, "2000-06-02": 0.0, "2000-06-05": -0.007914039824785335, "2000-06-06": 0.008971194372965563, "2000-06-07": 0.024704520459004176, "2000-06-08": 0.012534907856178501, "2000-06-09": -0.0028600748300922074, "2000-06-12": -0.003820372490716206, "2000-06-13": -0.008628094217943416, "2000-06-14": -0.011606659498902827, "2000-06-15": -0.009781208670554986, "2000-06-16": -0.0019812354350733363, "2000-06-19": 0.0009980281510482136, "2000-06-20": 0.017800668030938605, "2000-06-21": 0.0, "2000-06-22": 0.0, "2000-06-23": 0.0, "2000-06-26": 0.0009697226401215175, "2000-06-27": 0.0048523161131523995, "2000-06-28": 0.009668448394923645, "2000-06-29": 0.0009545524083993673, "2000-06-30": 0.007649042200717826, "2000-07-03": 0.09583757965713313, "2000-07-04": 0.008586420419545604, "2000-07-05": -0.0056819366137607075, "2000-07-06": -0.00380676039355754, "2000-07-07": -0.0028581073216832342, "2000-07-10": 0.0028662995133084124, "2000-07-11": 0.007642082260974625, "2000-07-12": 0.006638262668919426, "2000-07-13": 0.005645658592605685, "2000-07-14": -0.00842573593113427, "2000-07-17": -0.017936043786599742, "2000-07-18": -0.004816189378016755, "2000-07-19": -0.013523520967966052, "2000-07-20": 0.0009774080970743615, "2000-07-21": 0.0, "2000-07-24": -0.0029280230269221885, "2000-07-25": -0.012756623850504245, "2000-07-26": 0.0, "2000-07-27": -0.0029850390086547662, "2000-07-28": 0.003988517553592752, "2000-07-31": -0.007945445552432595, "2000-08-01": -0.010016370827378274, "2000-08-02": -0.006062362488481021, "2000-08-03": 0.0, "2000-08-04": -0.022377639024062645, "2000-08-07": -0.0020870292075517716, "2000-08-08": -0.004171432938417818, "2000-08-09": 0.014666874707442767, "2000-08-10": 0.0010294887691326693, "2000-08-11": -0.012372906967916153, "2000-08-14": 0.008352083437089375, "2000-08-15": 0.0051736690733033, "2000-08-16": 0.011332720574331878, "2000-08-17": 0.0, "2000-08-18": -0.005089621540631639, "2000-08-21": 0.001020902503111154, "2000-08-22": 0.0020399815883258565, "2000-08-23": 0.0, "2000-08-24": 0.0, "2000-08-25": 0.0, "2000-08-28": 0.0, "2000-08-29": 0.012246497587792948, "2000-08-30": 0.00806572709307507, "2000-08-31": 0.016001623597554193, "2000-09-01": 0.025589013059091226, "2000-09-04": 0.008635763358580073, "2000-09-05": -0.015225884987577487, "2000-09-06": -0.005792481020214235, "2000-09-07": -0.011663385819504768, "2000-09-08": -0.018677163373223338, "2000-09-11": 0.00901665992198497, "2000-09-12": 0.0029720227489253848, "2000-09-13": 0.0, "2000-09-14": 0.012880336220960187, "2000-09-15": 0.009771501871396193, "2000-09-18": -0.0009654144324602321, "2000-09-19": -0.00969665036227485, "2000-09-20": 0.0029383807807665807, "2000-09-21": -0.020487749149335488, "2000-09-22": -0.007969311285715874, "2000-09-25": 0.010046825757553224, "2000-09-26": 0.02087478206924498, "2000-09-27": 0.0029137431998109697, "2000-09-28": 0.0, "2000-09-29": -0.005820882399627192, "2000-10-02": 0.0, "2000-10-03": 0.0, "2000-10-04": -0.010746019901949566, "2000-10-05": -0.000984927445161432, "2000-10-06": 0.0, "2000-10-09": -0.001981256067399517, "2000-10-10": -0.006924116596557117, "2000-10-11": -0.008971526019389775, "2000-10-12": -0.004024624577709912, "2000-10-13": -0.005048896863512176, "2000-10-16": 0.0010131243906752463, "2000-10-17": 0.004057282656708017, "2000-10-18": -0.0020254830954453684, "2000-10-19": -0.001009850023507064, "2000-10-20": 0.003042516512669513, "2000-10-23": -0.0030332876848008228, "2000-10-24": -0.01418103142592686, "2000-10-25": 0.00822297446073339, "2000-10-26": 0.005094951772904421, "2000-10-27": 0.0, "2000-10-30": 0.002023581603827873, "2000-10-31": 0.0, "2000-11-01": -0.001009850023507064, "2000-11-02": 0.03444622350780957, "2000-11-03": 0.016650464170872237, "2000-11-06": 0.004815101582585024, "2000-11-07": 0.021100683760227223, "2000-11-08": 0.00280978040606894, "2000-11-09": 0.010303443725769856, "2000-11-10": 0.021311317659307605, "2000-11-13": 0.042998778634683266, "2000-11-14": 0.03912406416221548, "2000-11-15": 0.04990721774607021, "2000-11-16": -0.0033280311832827314, "2000-11-17": -0.006695430436506777, "2000-11-20": 0.004210683414256566, "2000-11-21": -0.006712379290728432, "2000-11-22": -0.030408704291180144, "2000-11-23": -0.013930245334462188, "2000-11-24": 0.022076091197931857, "2000-11-27": 0.0034577155754249578, "2000-11-28": 0.016369087594182208, "2000-11-29": 0.012715848898137594, "2000-11-30": -0.009208450848749217, "2000-12-01": -0.015200098264649742, "2000-12-04": -0.002575524739802826, "2000-12-05": 0.003440027013525082, "2000-12-06": 0.03513500794779545, "2000-12-07": 0.030621749080586902, "2000-12-08": 0.004824385318175306, "2000-12-11": 0.007193084635558122, "2000-12-12": -0.00873356134596004, "2000-12-13": 0.0, "2000-12-14": 0.0, "2000-12-15": -0.00800307432949987, "2000-12-18": -0.002424020978475716, "2000-12-19": 0.0008158868605541159, "2000-12-20": 0.0024187299532110185, "2000-12-21": -0.00322614850304781, "2000-12-22": 0.0, "2000-12-25": 0.0, "2000-12-26": 0.0, "2000-12-27": 0.0, "2000-12-28": 0.0016225659502668854, "2000-12-29": -0.004851089052084423, "2001-01-01": 0.0, "2001-01-02": -0.018665080775344567, "2001-01-03": -0.009926617782574865, "2001-01-04": 0.008351039998006238, "2001-01-05": 0.007463680670119155, "2001-01-08": 0.016440686268848204, "2001-01-09": 0.020226925708296095, "2001-01-10": 0.0031726139079537585, "2001-01-11": 0.01581240362072145, "2001-01-12": 0.0054500314165424335, "2001-01-15": 0.023218707027504948, "2001-01-16": 0.003026136866506546, "2001-01-17": 0.0022563912123130248, "2001-01-18": 0.007529745762625328, "2001-01-19": 0.03360926875070924, "2001-01-22": -0.0014490106924113233, "2001-01-23": -0.01302266494710369, "2001-01-24": 0.015395870454500749, "2001-01-25": 0.0014407642358424955, "2001-01-26": 0.028843102362559492, "2001-01-29": 0.042043435923170946, "2001-01-30": 0.03900646901480975, "2001-01-31": 0.011002736868692908, "2001-02-01": -0.008321910294971757, "2001-02-02": 0.01355686601904682, "2001-02-05": -0.0076439123680906995, "2001-02-06": -0.013479124152227628, "2001-02-07": -0.009762078982340605, "2001-02-08": 0.030223745305659966, "2001-02-09": 0.018495718501318148, "2001-02-12": -0.0037542864661707087, "2001-02-13": 0.0018877176323133238, "2001-02-14": -0.004394035957589026, "2001-02-15": 0.008191118885216175, "2001-02-16": -0.0062477107925525965, "2001-02-19": 0.0, "2001-02-20": 0.013207695668414843, "2001-02-21": 0.0024833911511661366, "2001-02-22": -0.015480473483111323, "2001-02-23": -0.014468456282951125, "2001-02-26": 0.003832400560217053, "2001-02-27": 0.0, "2001-02-28": -0.004452329867906113, "2001-03-01": -0.00383484332634465, "2001-03-02": 0.02884789232179874, "2001-03-05": 0.00934897701906201, "2001-03-06": 0.017901739781194248, "2001-03-07": -0.01030897073787218, "2001-03-08": -0.004291844347339202, "2001-03-09": -0.012308996366825364, "2001-03-12": -0.004363457405817117, "2001-03-13": -0.0193966263787827, "2001-03-14": -0.049136496834678356, "2001-03-15": -0.01140900175468107, "2001-03-16": 0.00474746256282943, "2001-03-19": -0.01283439503472239, "2001-03-20": 0.010263258061861125, "2001-03-21": 0.018296504402820046, "2001-03-22": 0.03126956343428611, "2001-03-23": 0.03032130071257888, "2001-03-26": 0.04257874314281396, "2001-03-27": 0.00781352507050781, "2001-03-28": -0.007152264165014577, "2001-03-29": 0.002401407863185545, "2001-03-30": -0.002999215773977215, "2001-04-02": 0.0030082381292262372, "2001-04-03": 0.022150100506961534, "2001-04-04": 0.05272805462674257, "2001-04-05": 0.00778881491768324, "2001-04-06": -0.02650260427572182, "2001-04-09": 0.001131524754329094, "2001-04-10": -0.0011302458531677884, "2001-04-11": 0.001131524754329094, "2001-04-12": -0.009631070983127432, "2001-04-13": 0.0, "2001-04-16": 0.0, "2001-04-17": -0.002288652663552493, "2001-04-18": 0.010325602435107273, "2001-04-19": 0.02099355980953521, "2001-04-20": -0.011673123364598137, "2001-04-23": -0.018560947555413265, "2001-04-24": -0.005728273222663782, "2001-04-25": -0.014409608419062025, "2001-04-26": -0.018709547197663268, "2001-04-27": 0.002978421702884093, "2001-04-30": -0.012477754213725545, "2001-05-01": -0.0012064935666253884, "2001-05-02": 0.03433979477932958, "2001-05-03": 0.019220501898777886, "2001-05-04": -0.00685800779049639, "2001-05-07": 0.0, "2001-05-08": -0.0005740120395960613, "2001-05-09": 0.02475432323879434, "2001-05-10": -0.007303084836094209, "2001-05-11": 0.0016935262600992207, "2001-05-14": 0.0, "2001-05-15": -0.0033871540469286865, "2001-05-16": 0.016440406036724475, "2001-05-17": 0.002787208594602575, "2001-05-18": 0.03225925746958791, "2001-05-21": -0.0005375963771906411, "2001-05-22": 0.001613369448915547, "2001-05-23": -0.025831733240652688, "2001-05-24": -0.008289783292800723, "2001-05-25": -0.011137388646146218, "2001-05-28": 0.0, "2001-05-29": -0.0016920310347565692, "2001-05-30": 0.018623827179786945, "2001-05-31": 0.0542918941566628, "2001-06-01": 0.03258126362999736, "2001-06-04": 0.006615151410220621, "2001-06-05": -0.02426453008554985, "2001-06-06": 0.016060112618568212, "2001-06-07": 0.0035712105412686324, "2001-06-08": -0.000512069789336711, "2001-06-11": -0.006101255581820397, "2001-06-12": -0.023014301773515045, "2001-06-13": 0.018322351962578365, "2001-06-14": -0.015422816065070122, "2001-06-15": -0.005220043811000719, "2001-06-18": 0.026770961867508936, "2001-06-19": 0.01840146357817707, "2001-06-20": -0.006024780335255553, "2001-06-21": -0.008585644877880716, "2001-06-22": -0.010698279864919114, "2001-06-25": -0.00411937871588397, "2001-06-26": -0.0020632134505671473, "2001-06-27": 0.0377013950327405, "2001-06-28": 0.0010590283533344902, "2001-06-29": 0.015377130940270156, "2001-07-02": 0.010966312629120845, "2001-07-03": 0.017046021707797676, "2001-07-04": -0.010158918972096642, "2001-07-05": 0.0051289612650231575, "2001-07-06": 0.000514616034904547, "2001-07-09": -0.005105673295993762, "2001-07-10": -0.00563737150308341, "2001-07-11": -0.046419072716234355, "2001-07-12": 0.008115045449635483, "2001-07-13": -0.03165178754186171, "2001-07-16": -0.02271637050126707, "2001-07-17": 0.014738127585727678, "2001-07-18": -0.01899349620987012, "2001-07-19": -0.03929148896581358, "2001-07-20": 0.0053342880747260235, "2001-07-23": -0.012970399041821956, "2001-07-24": -0.020912204554983882, "2001-07-25": -0.0030491540341036627, "2001-07-26": 0.02203455444554936, "2001-07-27": 0.008380853873160232, "2001-07-30": 0.01009473821553497, "2001-07-31": 0.034685203637316864, "2001-08-01": 0.00567955989247837, "2001-08-02": 0.014693992313101534, "2001-08-03": 0.009465331322235038, "2001-08-06": -0.007170172792804297, "2001-08-07": 0.006661782968832908, "2001-08-08": 0.00441554434528979, "2001-08-09": 0.0005540942385238168, "2001-08-10": -0.0005537873881227284, "2001-08-13": -0.004944044516976387, "2001-08-14": 0.0016582156399282955, "2001-08-15": -0.015437454654942728, "2001-08-16": 0.021276187076113562, "2001-08-17": 0.0328987953527895, "2001-08-20": 0.013799553421603772, "2001-08-21": 0.005233584432296823, "2001-08-22": 0.010417584875867414, "2001-08-23": -0.015462836098352195, "2001-08-24": -0.0010500036636355015, "2001-08-27": 0.0, "2001-08-28": 0.006290192821439833, "2001-08-29": -0.002083996272961519, "2001-08-30": -0.02400808861102577, "2001-08-31": -0.005345545607257751, "2001-09-03": -0.010754181453690781, "2001-09-04": 0.0032640607627520968, "2001-09-05": 0.002161680674209965, "2001-09-06": 0.014058502556824504, "2001-09-07": -0.013863601085516986, "2001-09-10": -0.021618838811566343, "2001-09-11": -0.005522939533088467, "2001-09-12": -0.006667401651042182, "2001-09-13": 0.02348986465621028, "2001-09-14": -0.022950754538346607, "2001-09-17": -0.013424563351733476, "2001-09-18": -0.027208374140505476, "2001-09-19": -0.00758073377265811, "2001-09-20": -0.018200960776132646, "2001-09-21": 0.016748330051022053, "2001-09-24": -0.002352961290875144, "2001-09-25": 0.0318402312357533, "2001-09-26": 0.0, "2001-09-27": 0.005711975366164079, "2001-09-28": -0.005679534007820175, "2001-10-01": 0.0022858106208789586, "2001-10-02": 0.0, "2001-10-03": 0.054727147999527936, "2001-10-04": 0.0324363846190463, "2001-10-05": -0.0649239623897283, "2001-10-08": 0.01903623938152199, "2001-10-09": -0.04395557303634656, "2001-10-10": 0.0908066827385332, "2001-10-11": 0.024236644120927187, "2001-10-12": 0.011315299486164943, "2001-10-15": 0.01627882338514297, "2001-10-16": 0.02602410494563001, "2001-10-17": 0.018536478348900376, "2001-10-18": -0.025380294115003088, "2001-10-19": -0.007373117328521639, "2001-10-22": 0.007427883988672779, "2001-10-23": 0.05061169676259847, "2001-10-24": 0.012159816040120619, "2001-10-25": 0.044363057909476256, "2001-10-26": 0.01770127390883358, "2001-10-29": -0.01304716096397529, "2001-10-30": -0.02643068984690944, "2001-10-31": 0.0027178992611680552, "2001-11-01": -0.00632114217050006, "2001-11-02": 0.009994765904515646, "2001-11-05": 0.0071902230681015755, "2001-11-06": 0.035714578435822375, "2001-11-07": 0.012934646866029853, "2001-11-08": 0.0468072941107045, "2001-11-09": -0.024393239476537376, "2001-11-12": 0.0041696304075871105, "2001-11-13": 0.03568237087551118, "2001-11-14": 0.04173315269187361, "2001-11-15": 0.0, "2001-11-16": 0.05196642218755465, "2001-11-19": -0.02694530124882133, "2001-11-20": -0.05923214188302983, "2001-11-21": 0.0016354762062229522, "2001-11-22": 0.00979734335286464, "2001-11-23": 0.014552872442095577, "2001-11-26": 0.026292256799470337, "2001-11-27": -0.04502915065829327, "2001-11-28": -0.015041252095593038, "2001-11-29": -0.002890558849152791, "2001-11-30": -0.006623300325848014, "2001-12-03": -0.02582975648040453, "2001-12-04": -0.013688663576947646, "2001-12-05": 0.007371835937324267, "2001-12-06": -0.0021514099406744203, "2001-12-07": 0.013806478151887847, "2001-12-10": -0.04681211784608852, "2001-12-11": -0.017854407185296295, "2001-12-12": 0.01363529860149093, "2001-12-13": 0.0017940267969893675, "2001-12-14": -0.006716434099758972, "2001-12-17": 0.0004545162738907038, "2001-12-18": 0.009005108283813401, "2001-12-19": 0.012502026724491966, "2001-12-20": -0.003528327793884456, "2001-12-21": 0.025665074103927932, "2001-12-24": -0.01466754594775832, "2001-12-25": 0.0, "2001-12-26": 0.0, "2001-12-27": 0.00700614603611549, "2001-12-28": 0.017388869562397602, "2001-12-31": 0.01880578940105404, "2002-01-01": 0.0, "2002-01-02": -0.016780805098055573, "2002-01-03": 0.017918420536914503, "2002-01-04": 0.03688204629525793, "2002-01-07": -0.004040754684099923, "2002-01-08": -0.017045323396284617, "2002-01-09": 0.011557828611331589, "2002-01-10": -0.012244099833840338, "2002-01-11": 0.05124140543506539, "2002-01-14": -0.01179165519472436, "2002-01-15": 0.03420640524163554, "2002-01-16": -0.0007672819751073368, "2002-01-17": 0.033100510456936405, "2002-01-18": -0.013414997205716706, "2002-01-21": 0.02266158767446269, "2002-01-22": -0.0206819336371713, "2002-01-23": 0.018101851585377027, "2002-01-24": -0.04518462930781375, "2002-01-25": -0.0031037741156479948, "2002-01-28": 0.00855932976606999, "2002-01-29": -0.013117177172099592, "2002-01-30": 0.003907786965388738, "2002-01-31": 0.001557501615184087, "2002-02-01": -0.031879165918533126, "2002-02-04": -0.0337349151249241, "2002-02-05": -0.06068290458999881, "2002-02-06": -0.008850555867579546, "2002-02-07": -0.031246692696554113, "2002-02-08": 0.030410912280199653, "2002-02-11": 0.037567832771824294, "2002-02-12": -0.006033319846882157, "2002-02-13": 0.018213395510842778, "2002-02-14": 0.005111033018276645, "2002-02-15": 0.007625895932410476, "2002-02-18": -0.04205289636977194, "2002-02-19": -0.025457088686604457, "2002-02-20": -0.053157652450670834, "2002-02-21": -0.0009491301189642476, "2002-02-22": -0.04761962989108248, "2002-02-25": 0.01899969655651379, "2002-02-26": 0.024534266367374213, "2002-02-27": 0.0028762597663543055, "2002-02-28": -0.009551916934486093, "2002-03-01": -0.0009670042469780427, "2002-03-04": -0.00579252078544612, "2002-03-05": -0.029124521184497376, "2002-03-06": 0.0, "2002-03-07": 0.012001471357122151, "2002-03-08": 0.014821313697995775, "2002-03-11": 0.01265683954816299, "2002-03-12": 0.0, "2002-03-13": -0.000958996861297412, "2002-03-14": 0.005775673754004673, "2002-03-15": 0.02009569730500327, "2002-03-18": 0.018759265207893172, "2002-03-19": -0.004602490673844439, "2002-03-20": 0.008324283178321235, "2002-03-21": -0.004585130182237829, "2002-03-22": -0.002767954450734411, "2002-03-25": 0.03050042209972248, "2002-03-26": 0.026904893969079025, "2002-03-27": 0.016593485841963407, "2002-03-28": 0.026633412536414713, "2002-03-29": 0.0, "2002-04-01": 0.0, "2002-04-02": -0.020920905821373514, "2002-04-03": 0.0042762016292798855, "2002-04-04": -0.00680944540337014, "2002-04-05": -0.0017141616684346328, "2002-04-08": -0.0103013124877952, "2002-04-09": -0.012143878336617564, "2002-04-10": 0.014049314725944173, "2002-04-11": -0.06926352474728703, "2002-04-12": 0.012091603360602443, "2002-04-15": -0.02481670035816297, "2002-04-16": 0.0113114761455817, "2002-04-17": -0.004657710090198219, "2002-04-18": -0.046817247629995284, "2002-04-19": -0.002950041620889632, "2002-04-22": -0.0167482558713985, "2002-04-23": 0.0060127182649882815, "2002-04-24": 0.0009988119618520308, "2002-04-25": 0.0029827077520290235, "2002-04-26": -0.01686502111196031, "2002-04-29": -0.016146973365334882, "2002-04-30": -0.017435432076687185, "2002-05-01": 0.012527635805807513, "2002-05-02": 0.048451767707359705, "2002-05-03": -0.01868213293695764, "2002-05-06": 0.0, "2002-05-07": -0.010021420069136089, "2002-05-08": 0.022270056486206835, "2002-05-09": -0.0445523559426223, "2002-05-10": 0.02072256531411454, "2002-05-13": -0.012184318540773176, "2002-05-14": 0.02672497491559933, "2002-05-15": -0.008009446189267466, "2002-05-16": -0.0020179899603910423, "2002-05-17": -0.029323194287283028, "2002-05-20": -0.02708145856933042, "2002-05-21": -0.020342359004838828, "2002-05-22": 0.03606112308662057, "2002-05-23": 0.012660364697745008, "2002-05-24": 0.010417468260589091, "2002-05-27": -0.012372635928932119, "2002-05-28": 0.0020884115838288864, "2002-05-29": -0.009373526419268585, "2002-05-30": 0.004206271190929867, "2002-05-31": 0.05759061199026294, "2002-06-03": 0.0, "2002-06-04": 0.0, "2002-06-05": -0.003961002048852746, "2002-06-06": -0.003976577029433326, "2002-06-07": -0.018961949254717503, "2002-06-10": -0.003049471308924301, "2002-06-11": -0.001023361226781927, "2002-06-12": 0.001024409567814022, "2002-06-13": -0.013269478704954207, "2002-06-14": -0.029985314917451045, "2002-06-17": 0.030912227802921688, "2002-06-18": -0.011374116249946553, "2002-06-19": 0.0041848397844928, "2002-06-20": -0.03749973808160034, "2002-06-21": 0.006494514952782415, "2002-06-24": -0.011290192452519943, "2002-06-25": 0.03153984198982629, "2002-06-26": 0.0855656933313389, "2002-06-27": 0.051307246880868185, "2002-06-28": 0.025894097227396662, "2002-07-01": 0.0, "2002-07-02": -0.010678204704705707, "2002-07-03": 0.04514263538720731, "2002-07-04": 0.03286582955127382, "2002-07-05": -0.013635719679337077, "2002-07-08": 0.01382422290769103, "2002-07-09": -0.007727414387584841, "2002-07-10": 0.007330228297434349, "2002-07-11": -0.021377057023254653, "2002-07-12": 0.002791030663379379, "2002-07-15": -0.04541577071907643, "2002-07-16": -0.002910330491061708, "2002-07-17": 0.0370004022708994, "2002-07-18": 0.009391241925630123, "2002-07-19": 0.013952469709104465, "2002-07-22": -0.019723714629955702, "2002-07-23": -0.010293492070212462, "2002-07-24": -0.021277910779221365, "2002-07-25": 0.028983848171371118, "2002-07-26": 0.0023466138622028065, "2002-07-29": -0.01311156046347739, "2002-07-30": -0.017561319781041695, "2002-07-31": 0.025118657118092136, "2002-08-01": -0.048066424121839035, "2002-08-02": 0.017823837038550172, "2002-08-05": -0.03599433105888561, "2002-08-06": 0.021191216238026778, "2002-08-07": 0.03804178395448221, "2002-08-08": -0.00047513690219669336, "2002-08-09": -0.01142956059419764, "2002-08-12": 0.012042564580366566, "2002-08-13": -0.0128488727330337, "2002-08-14": -0.0019289472583857714, "2002-08-15": -0.0029014456241257536, "2002-08-16": -0.0048431281361448475, "2002-08-19": 0.0301862531546353, "2002-08-20": -0.0028384288121933166, "2002-08-21": -0.008529568135350107, "2002-08-22": 0.00573727799648549, "2002-08-23": 0.008079550237075406, "2002-08-26": 0.0, "2002-08-27": 0.012727698703392853, "2002-08-28": -0.03165693836509009, "2002-08-29": 0.009616702352655881, "2002-08-30": 0.00857038672967203, "2002-09-02": -0.007079418850232666, "2002-09-03": 0.003325142052349239, "2002-09-04": 0.0014230683714067105, "2002-09-05": 0.009938708229104476, "2002-09-06": -0.009373558105512991, "2002-09-09": -0.010405571099952216, "2002-09-10": 0.027726148683819618, "2002-09-11": -0.004649408972345559, "2002-09-12": -0.018694286738028754, "2002-09-13": -0.0028548890151280926, "2002-09-16": 0.0090708201576426, "2002-09-17": -0.015145863803670112, "2002-09-18": -0.03219147279882617, "2002-09-19": -0.021849922460017712, "2002-09-20": -0.005074003399556437, "2002-09-23": -0.009187445705489128, "2002-09-24": 0.04840744105635464, "2002-09-25": 0.026522952121968535, "2002-09-26": 0.012439278630855366, "2002-09-27": -0.029301743313113526, "2002-09-30": -0.03213392514192326, "2002-10-01": -0.02615488990794701, "2002-10-02": 0.03409231162573412, "2002-10-03": -0.018980607065959387, "2002-10-04": -0.012221703190126498, "2002-10-07": -0.011338913770119863, "2002-10-08": -0.018771603991642682, "2002-10-09": -0.04888489550472985, "2002-10-10": 0.0, "2002-10-11": 0.04245757887784585, "2002-10-14": -0.002143881525372926, "2002-10-15": 0.0010770591043802735, "2002-10-16": -0.054719252291035136, "2002-10-17": 0.08739624001433066, "2002-10-18": -0.012527516152942009, "2002-10-21": 0.04651196478906772, "2002-10-22": 0.027273765051675003, "2002-10-23": -0.02261596473826233, "2002-10-24": 0.007045741060508703, "2002-10-25": -0.0059948536134092345, "2002-10-28": -0.005028291503016202, "2002-10-29": -0.040403711702445944, "2002-10-30": 0.00105571347784994, "2002-10-31": 0.0010486105422036207, "2002-11-01": 0.02941549279515665, "2002-11-04": 0.05101588108454669, "2002-11-05": -0.0038783968833367988, "2002-11-06": 0.0, "2002-11-07": -0.07407833323664714, "2002-11-08": 0.006316727642759146, "2002-11-11": 0.02301499214296765, "2002-11-12": 0.005110543948166679, "2002-11-13": 0.04252892087046267, "2002-11-14": 0.01128609333525743, "2002-11-15": -0.026372107108291853, "2002-11-18": -0.0010394282841731384, "2002-11-19": -0.002085687805859715, "2002-11-20": -0.014630821352685563, "2002-11-21": 0.012727147114735216, "2002-11-22": -0.017800425406506504, "2002-11-25": -0.0032015864040025876, "2002-11-26": -0.010696529595038196, "2002-11-27": -0.0010784205134414249, "2002-11-28": -0.011903439851484565, "2002-11-29": -0.021908217077683423, "2002-12-02": -0.01679684522212399, "2002-12-03": 0.014805355455264069, "2002-12-04": 0.0, "2002-12-05": -0.005609381585640394, "2002-12-06": -0.018060993127246294, "2002-12-09": -0.024137882861343662, "2002-12-10": 0.004711921066169467, "2002-12-11": 0.00937983013107968, "2002-12-12": 0.010451245268074283, "2002-12-13": -0.018386895698973893, "2002-12-16": 0.012878642438578058, "2002-12-17": -0.015027484897402799, "2002-12-18": -0.005872650554338388, "2002-12-19": 0.0023619308315694365, "2002-12-20": 0.03651495412064065, "2002-12-23": -0.0011335643301996212, "2002-12-24": -0.0022756657117991574, "2002-12-25": 0.0, "2002-12-26": 0.0, "2002-12-27": -0.010266349149097853, "2002-12-30": 0.02534896523368313, "2002-12-31": -0.003374368950801898, "2003-01-01": 0.0, "2003-01-02": -0.00337986129691914, "2003-01-03": 0.010743962860895184, "2003-01-06": -0.026300194436405744, "2003-01-07": -0.005745051515658295, "2003-01-08": -0.005777975454312689, "2003-01-09": 0.008137587238785882, "2003-01-10": 0.0, "2003-01-13": 0.0, "2003-01-14": -0.0023072572581537276, "2003-01-15": -0.0052013650879289, "2003-01-16": 0.00522856074122835, "2003-01-17": -0.020811884284228088, "2003-01-20": -0.005900874570686332, "2003-01-21": -0.020189438993673425, "2003-01-22": -0.020605284899802845, "2003-01-23": 0.02722466070325802, "2003-01-24": 0.02530115103600683, "2003-01-27": -0.027027442339007668, "2003-01-28": 0.018115170299077166, "2003-01-29": 0.005935189052930445, "2003-01-30": 0.024175676140016256, "2003-01-31": -0.02130174004550378, "2003-02-03": 0.0247059358089603, "2003-02-04": -0.02124149052046087, "2003-02-05": 0.0017617138168697366, "2003-02-06": -0.004684499217935789, "2003-02-07": -0.01176640223452352, "2003-02-10": 0.0, "2003-02-11": 0.0, "2003-02-12": -0.004168720354952193, "2003-02-13": 0.0041861713325956895, "2003-02-14": 0.0, "2003-02-17": 0.017262505471502543, "2003-02-18": 0.008773495374702511, "2003-02-19": -0.008118753726133132, "2003-02-20": -0.0005831715128454817, "2003-02-21": -0.0017570612476219827, "2003-02-24": -0.0011693539671518982, "2003-02-25": -0.018781622627087935, "2003-02-26": 0.016748565699256757, "2003-02-27": 0.0035266243064266956, "2003-02-28": 0.002344692816812932, "2003-03-03": 0.0146207165605714, "2003-03-04": -0.0017313205212023952, "2003-03-05": -0.00923307395045525, "2003-03-06": 0.0023314558079747805, "2003-03-07": 0.0, "2003-03-10": 0.023832480708841475, "2003-03-11": 0.0022715535395585462, "2003-03-12": -0.0062284316430528675, "2003-03-13": 0.040479213760049815, "2003-03-14": -0.011506832348469387, "2003-03-17": -0.002217551775037352, "2003-03-18": -0.011112030317762422, "2003-03-19": 0.00898950720415903, "2003-03-20": -0.01893019663818074, "2003-03-21": 0.01815732789361535, "2003-03-24": -0.007801536535148368, "2003-03-25": 0.009549920147443158, "2003-03-26": 0.022817248767607046, "2003-03-27": 0.054950825760967215, "2003-03-28": 0.005669490637567609, "2003-03-31": -0.0035861415367338667, "2003-04-01": -0.014925942661357605, "2003-04-02": 0.008360557275285174, "2003-04-03": 0.0031065945261754546, "2003-04-04": 0.0015511845254205792, "2003-04-07": 0.02990779953838918, "2003-04-08": -0.00650927809479529, "2003-04-09": -0.0015083151506369852, "2003-04-10": 0.02220879657371211, "2003-04-11": -0.008887743260486136, "2003-04-14": 0.019927461120633927, "2003-04-15": 0.011725866216293124, "2003-04-16": 0.008208646768165018, "2003-04-17": 0.014367126214217762, "2003-04-18": 0.0, "2003-04-21": 0.0, "2003-04-22": 0.017941253874208085, "2003-04-23": -0.011128541394218483, "2003-04-24": -0.0018764649319971127, "2003-04-25": -0.008462098452711175, "2003-04-28": -0.006633384755411087, "2003-04-29": -0.0176537585954889, "2003-04-30": 0.024768699617903733, "2003-05-01": -0.004737477910120691, "2003-05-02": 0.005715056047354228, "2003-05-05": 0.0, "2003-05-06": 0.007576611901488395, "2003-05-07": 0.000937458922736667, "2003-05-08": -0.011737110365054315, "2003-05-09": 0.022326736254772106, "2003-05-12": 0.0009316787131068427, "2003-05-13": 0.025996816141922396, "2003-05-14": 0.018553098124463485, "2003-05-15": 0.024433137037478847, "2003-05-16": 0.014743672795103357, "2003-05-19": -0.023929792449371545, "2003-05-20": 0.022328318712154793, "2003-05-21": -0.04454053790057222, "2003-05-22": 0.06230323734074661, "2003-05-23": 0.007598190734485977, "2003-05-26": 0.0, "2003-05-27": 0.009211937226933697, "2003-05-28": 0.042736119013306206, "2003-05-29": -0.020294205607324867, "2003-05-30": 0.014624307241596801, "2003-06-02": -0.012412591142097473, "2003-06-03": -0.008916850558367106, "2003-06-04": -0.0004078782449949969, "2003-06-05": -0.0032735964709205145, "2003-06-06": 0.027913678301089817, "2003-06-09": -0.0019960748477333423, "2003-06-10": -0.014004052777119691, "2003-06-11": 0.020292644869694065, "2003-06-12": 0.00556725330940866, "2003-06-13": 0.008307076969631177, "2003-06-16": -0.0011783150166131406, "2003-06-17": 0.003143037019964101, "2003-06-18": -0.007046719889559183, "2003-06-19": -0.018929822743682045, "2003-06-20": -0.008440709489259346, "2003-06-23": -0.0012129466209251927, "2003-06-24": 0.016231425649998465, "2003-06-25": 0.04416684737309784, "2003-06-26": -0.004067610214977813, "2003-06-27": -0.01142572389694152, "2003-06-30": -0.012385999817242754, "2003-07-01": 0.010030474435163361, "2003-07-02": 0.016558366393746526, "2003-07-03": 0.010585631812052965, "2003-07-04": 0.013698213724681718, "2003-07-07": 0.0143103863818419, "2003-07-08": -0.0007859138888675066, "2003-07-09": 0.010981745075843374, "2003-07-10": -0.010084467983900613, "2003-07-11": 0.007052144908025637, "2003-07-14": 0.0015564357513468963, "2003-07-15": 0.020979696336452358, "2003-07-16": -0.022070677253428594, "2003-07-17": -0.009340052177926883, "2003-07-18": -0.013353673113426057, "2003-07-21": -0.004777681058544481, "2003-07-22": 0.009601351983864026, "2003-07-23": 0.005544926545551387, "2003-07-24": -0.014971950893963526, "2003-07-25": -0.0016002401099128871, "2003-07-28": -0.0032056247684261185, "2003-07-29": 0.0032159338456152486, "2003-07-30": -0.005607582193049021, "2003-07-31": -0.0024157258502406354, "2003-08-01": -0.021004334414149062, "2003-08-04": 0.010725395152214379, "2003-08-05": -0.02040853874883075, "2003-08-06": 0.0008354605751224042, "2003-08-07": -0.01998569267499173, "2003-08-08": 0.034836472349226266, "2003-08-11": 0.02134487777718519, "2003-08-12": 0.0056298036650208605, "2003-08-13": -0.0015989724471456856, "2003-08-14": -0.008007163376907322, "2003-08-15": 0.004033743219055808, "2003-08-18": -0.006427561028126472, "2003-08-19": -0.02346358292521178, "2003-08-20": 0.012426823731527037, "2003-08-21": 0.009001163503312926, "2003-08-22": -0.0032447247003319912, "2003-08-25": 0.0, "2003-08-26": -0.017087281561599887, "2003-08-27": 0.0016560002757655123, "2003-08-28": 0.014049173611522248, "2003-08-29": 0.0008170757448096033, "2003-09-01": 0.006515413023463701, "2003-09-02": 0.0056621282860227495, "2003-09-03": 0.00563023423089426, "2003-09-04": -0.008798985480048205, "2003-09-05": -0.0016147885339592438, "2003-09-08": -0.012935931673809575, "2003-09-09": 0.009829645759881434, "2003-09-10": 0.02189841566457673, "2003-09-11": 0.0, "2003-09-12": 0.00952458199938877, "2003-09-15": 0.011792020546860904, "2003-09-16": 0.01476252295620517, "2003-09-17": 0.0076583491639528045, "2003-09-18": 0.0060753483690314525, "2003-09-19": -0.02190000902775535, "2003-09-22": 0.01389757529646607, "2003-09-23": -0.018277143324271217, "2003-09-24": 0.013187779200587224, "2003-09-25": -0.003826904223919847, "2003-09-26": -0.0007703857979556306, "2003-09-29": 0.0, "2003-09-30": 0.0030770693828059414, "2003-10-01": 0.03681034248510806, "2003-10-02": 0.0073974661136329, "2003-10-03": 0.01174506662467989, "2003-10-06": -0.007257793662687417, "2003-10-07": -0.011693699125162382, "2003-10-08": -0.006655620674481222, "2003-10-09": 0.026804861986371442, "2003-10-10": 0.005075071892051364, "2003-10-13": 0.0, "2003-10-14": -0.008658913475751207, "2003-10-15": 0.024017965524209428, "2003-10-16": 0.002131123299770943, "2003-10-17": 0.004967199830845592, "2003-10-20": 0.02469744216182379, "2003-10-21": 0.0048230366165473715, "2003-10-22": -0.0006873387350343485, "2003-10-23": -0.017830844291492176, "2003-10-24": 0.010473991318663112, "2003-10-27": 0.006218677299426378, "2003-10-28": 0.005495154895955423, "2003-10-29": -0.0047801309729158525, "2003-10-30": -0.004806387048794991, "2003-10-31": -0.0006882046505771733, "2003-11-03": 0.02139489673295225, "2003-11-04": 0.017566041433957125, "2003-11-05": -0.04515112099094187, "2003-11-06": -0.004870571612427321, "2003-11-07": 0.02725550789943365, "2003-11-10": -0.0013608475620621174, "2003-11-11": -0.01294254796101546, "2003-11-12": 0.04092568471190483, "2003-11-13": -0.014522665474959728, "2003-11-14": 0.007014978607183142, "2003-11-17": -0.012541802346307751, "2003-11-18": 0.007762066194631823, "2003-11-19": -0.0034999835292558457, "2003-11-20": 0.006323568734531548, "2003-11-21": 0.00768057776663067, "2003-11-24": 0.006236133269663435, "2003-11-25": -0.0006868882075993232, "2003-11-26": -0.008958705160701519, "2003-11-27": 0.0006937586172517385, "2003-11-28": -0.008336488968401556, "2003-12-01": 0.0013979136022819194, "2003-12-02": 0.0216944384419564, "2003-12-03": 0.0164405737149087, "2003-12-04": -0.010783066287911036, "2003-12-05": 0.0, "2003-12-08": -0.0013627585125898234, "2003-12-09": 0.0027288497172845982, "2003-12-10": -0.006121491704728643, "2003-12-11": -0.015742661317485807, "2003-12-12": -0.0006976136528857868, "2003-12-15": -0.005567562576273333, "2003-12-16": 0.007700497749650426, "2003-12-17": -0.0013890582946580743, "2003-12-18": 0.003475456262865828, "2003-12-19": 0.004849960391378305, "2003-12-22": 0.006897497716955359, "2003-12-23": -0.010273522266129986, "2003-12-24": 0.006227119772395984, "2003-12-25": 0.0, "2003-12-26": 0.0, "2003-12-29": 0.0041273418782799, "2003-12-30": 0.003426610100728089, "2003-12-31": -0.0027306115043844725, "2004-01-01": 0.0, "2004-01-02": -0.0013691895498830764, "2004-01-05": -0.006854569235553387, "2004-01-06": 0.019322588263588125, "2004-01-07": 0.012863350213409452, "2004-01-08": 0.04813133046757079, "2004-01-09": -0.010205493080651773, "2004-01-12": -0.0045094268174417085, "2004-01-13": -0.009708125071503204, "2004-01-14": 0.012418341070564498, "2004-01-15": 0.0038704504464825984, "2004-01-16": 0.005145244463862664, "2004-01-19": -0.003197514826584036, "2004-01-20": -0.01668679938520301, "2004-01-21": 0.01827544191755348, "2004-01-22": 0.005768246468037308, "2004-01-23": 0.0006390190158445108, "2004-01-26": -0.007008893162038232, "2004-01-27": 0.0044922978922072865, "2004-01-28": 0.020433603404908407, "2004-01-29": -0.01626911127620445, "2004-01-30": -0.012086293595216735, "2004-02-02": 0.010946001865868249, "2004-02-03": -0.010192234976153292, "2004-02-04": 0.0128718476038856, "2004-02-05": 0.0031750811613482366, "2004-02-06": 0.012032895630701423, "2004-02-09": 0.0037553208247447234, "2004-02-10": -0.018702314469370984, "2004-02-11": -0.0050835460291744905, "2004-02-12": -0.005108921097592756, "2004-02-13": -0.001283933990571362, "2004-02-16": -0.003856514758703522, "2004-02-17": 0.007742890087303778, "2004-02-18": 0.0179242784982121, "2004-02-19": 0.013838614056936427, "2004-02-20": -0.0074454151415067615, "2004-02-23": -0.0012498990749252314, "2004-02-24": -0.017520995716784782, "2004-02-25": -0.005734593048765779, "2004-02-26": -0.0006391854370374483, "2004-02-27": -0.011539694540382617, "2004-03-01": 0.038911798810110865, "2004-03-02": 0.0, "2004-03-03": 0.016228739831872563, "2004-03-04": 0.0036857850160292305, "2004-03-05": 0.013465541324262809, "2004-03-08": 0.003620613187482302, "2004-03-09": -0.007218023146058683, "2004-03-10": -0.004244530494104448, "2004-03-11": -0.03164716283104485, "2004-03-12": 0.017597642370241084, "2004-03-15": -0.014822443114067996, "2004-03-16": 0.028212043589319835, "2004-03-17": 0.015243990513338357, "2004-03-18": 0.0012011888901148904, "2004-03-19": 0.0149977342241292, "2004-03-22": -0.023640727341774692, "2004-03-23": -0.013318729413519415, "2004-03-24": 0.01533752463678728, "2004-03-25": 0.03746357309391146, "2004-03-26": -0.013395236196526494, "2004-03-29": 0.01770867926744013, "2004-03-30": 0.008121482127186663, "2004-03-31": 0.006328285724787719, "2004-04-01": -0.009149126552261078, "2004-04-02": 0.014426349392224092, "2004-04-05": 0.010807255374764235, "2004-04-06": 0.021384251937944132, "2004-04-07": -0.002753718024805174, "2004-04-08": 0.014917647443780435, "2004-04-09": 0.0, "2004-04-12": 0.0, "2004-04-13": 0.009253981293697366, "2004-04-14": -0.007552232502223699, "2004-04-15": 0.008696726134587829, "2004-04-16": -0.0026957172102239912, "2004-04-19": -0.0070226772669657045, "2004-04-20": 0.003264965998164282, "2004-04-21": -0.023317516362995838, "2004-04-22": -0.027763156571032233, "2004-04-23": 0.022271265478350566, "2004-04-26": -0.0072621460964946705, "2004-04-27": 0.002815634135423295, "2004-04-28": -0.020204621765311792, "2004-04-29": -0.016035396349270425, "2004-04-30": -0.0174613900146271, "2004-05-03": 0.0, "2004-05-04": 0.004740231719690291, "2004-05-05": 0.0, "2004-05-06": -0.0371464613103073, "2004-05-07": 0.0202057329288734, "2004-05-10": -0.045015659592523294, "2004-05-11": 0.030166822369741775, "2004-05-12": -0.005490065118158749, "2004-05-13": 0.004296540949004779, "2004-05-14": -0.006721950608149951, "2004-05-17": -0.016605925624940898, "2004-05-18": 0.02626646544978639, "2004-05-19": 0.019502884119817265, "2004-05-20": -0.018530101376213914, "2004-05-21": -0.005480433070434221, "2004-05-24": 0.009795716921089603, "2004-05-25": -0.020009562236351752, "2004-05-26": -0.003096144718355287, "2004-05-27": 0.014277048498297473, "2004-05-28": 0.0, "2004-05-31": 0.0, "2004-06-01": -0.009179768445718106, "2004-06-02": -0.004941678589966303, "2004-06-03": -0.032279028636297835, "2004-06-04": 0.005132564884190449, "2004-06-07": 0.012764635872012597, "2004-06-08": 0.0056700954418245075, "2004-06-09": 0.021302737734762545, "2004-06-10": 0.007974826101703636, "2004-06-11": -0.03103996449084101, "2004-06-14": -0.013817739819543151, "2004-06-15": 0.010827924158109958, "2004-06-16": -0.010711936126149513, "2004-06-17": -0.008282764601659554, "2004-06-18": -0.0038508249446405074, "2004-06-21": -0.008384148029954797, "2004-06-22": 0.007154738059331089, "2004-06-23": 0.030761625169109186, "2004-06-24": -0.013367095042983501, "2004-06-25": 0.01693798989009032, "2004-06-28": -0.0006686216019302638, "2004-06-29": -0.027331308646903696, "2004-06-30": -0.021247835082061295, "2004-07-01": 0.004202020849028321, "2004-07-02": -0.007669986050215516, "2004-07-05": 0.0021064835271225046, "2004-07-06": -0.04908717671384999, "2004-07-07": 0.08038378972256521, "2004-07-08": 0.021157855643391343, "2004-07-09": -0.009355814009751051, "2004-07-12": -0.03171629975330903, "2004-07-13": 0.011151400261594446, "2004-07-14": 0.004822718447214713, "2004-07-15": -0.005487310634704534, "2004-07-16": -0.026206951990453975, "2004-07-19": -0.010622634296062583, "2004-07-20": 0.017896227103609386, "2004-07-21": 0.022502401418155404, "2004-07-22": -0.037136618529395427, "2004-07-23": 0.003569923130337216, "2004-07-26": -0.035587560050258316, "2004-07-27": 0.008117177777418716, "2004-07-28": -0.06881139056069563, "2004-07-29": 0.01886616135260666, "2004-07-30": 0.009260605974312108, "2004-08-02": -0.04434409376188797, "2004-08-03": 0.016800019509837005, "2004-08-04": 0.007083872388431889, "2004-08-05": -0.007034044117528837, "2004-08-06": 0.0007888203590205034, "2004-08-09": -0.004717450294839054, "2004-08-10": 0.0252752646538823, "2004-08-11": 0.010787362268475542, "2004-08-12": 0.005333949319114462, "2004-08-13": 0.015165275852621063, "2004-08-16": -0.01195115178800421, "2004-08-17": 0.01889683278609522, "2004-08-18": 0.008903364233149968, "2004-08-19": -0.019119992212311643, "2004-08-20": 0.0, "2004-08-23": 0.008244959575632205, "2004-08-24": -0.005944739435637225, "2004-08-25": 0.0067302690502784035, "2004-08-26": 0.0, "2004-08-27": 0.0029722266372833595, "2004-08-30": 0.0, "2004-08-31": -0.020000817432077045, "2004-09-01": 0.009071521816712114, "2004-09-02": 0.005993329317593554, "2004-09-03": 0.013400692284543325, "2004-09-06": 0.02424769939679794, "2004-09-07": -0.0050239037403534414, "2004-09-08": 0.007210615252330355, "2004-09-09": -0.030778238279830505, "2004-09-10": 0.0014770067367826378, "2004-09-13": 0.0162224516160423, "2004-09-14": -0.006530144269993432, "2004-09-15": 0.0021897577607827845, "2004-09-16": -0.020406928080976217, "2004-09-17": -0.0037183898892095835, "2004-09-20": -0.003736816213302352, "2004-09-21": -0.00524626659869476, "2004-09-22": -0.049738198420269275, "2004-09-23": -0.030134687948597527, "2004-09-24": 0.010633155766485602, "2004-09-27": -0.02022689630652008, "2004-09-28": 0.028075011676767403, "2004-09-29": -0.07228973683540585, "2004-09-30": 0.029436500101528207, "2004-10-01": 0.03868832187488658, "2004-10-04": 0.011337540481522357, "2004-10-05": 0.037628389161846076, "2004-10-06": 0.057871668090793804, "2004-10-07": -0.006563561522179517, "2004-10-08": 0.0256948322393431, "2004-10-11": -0.010736496128120998, "2004-10-12": -0.013748027421799813, "2004-10-13": -0.026412060885906752, "2004-10-14": -0.009795503069881195, "2004-10-15": -0.0076112825059769795, "2004-10-18": -0.023774052659412348, "2004-10-19": 0.014141494199352067, "2004-10-20": -0.004648138878051489, "2004-10-21": 0.01167268177176961, "2004-10-22": -0.01615414533598003, "2004-10-25": -0.00859911917044387, "2004-10-26": 0.007096522903748292, "2004-10-27": 0.03288949903755789, "2004-10-28": -0.005305649254883971, "2004-10-29": -0.003813315580948995, "2004-11-01": 0.00994957640234384, "2004-11-02": 0.0030266424566782746, "2004-11-03": 0.015107639083334456, "2004-11-04": -0.031250007716935535, "2004-11-05": 0.022274379191162152, "2004-11-08": -0.004508350615408441, "2004-11-09": 0.0007527636495350265, "2004-11-10": 0.036149778406806776, "2004-11-11": 0.0, "2004-11-12": 0.02993272593684515, "2004-11-15": 0.008195680100676617, "2004-11-16": -0.0007373714453318136, "2004-11-17": 0.0428970793394432, "2004-11-18": 0.014186265968165968, "2004-11-19": 0.018180440504703466, "2004-11-22": -0.004121368149299864, "2004-11-23": 0.007588814904152974, "2004-11-24": 0.008897371915480345, "2004-11-25": 0.004071278991275129, "2004-11-26": -0.010812240310973165, "2004-11-29": 0.006146750276660118, "2004-11-30": 0.011543959973317364, "2004-12-01": 0.0, "2004-12-02": -0.010739583747020442, "2004-12-03": 0.0006767545608037384, "2004-12-06": -0.012881148130482911, "2004-12-07": -0.007554068947693615, "2004-12-08": -0.015917054582955892, "2004-12-09": -0.007033609468393487, "2004-12-10": -0.0007063046028377151, "2004-12-13": 0.011340983522704295, "2004-12-14": -0.01191646855661177, "2004-12-15": 0.0028373960612775306, "2004-12-16": 0.006367335737952562, "2004-12-17": -0.0007043817744351033, "2004-12-20": 0.011253007076694743, "2004-12-21": -0.015994606184949856, "2004-12-22": 0.021200431344965853, "2004-12-23": -0.004152999608244667, "2004-12-24": 0.003477103131570347, "2004-12-27": 0.0, "2004-12-28": 0.0, "2004-12-29": -0.0034650547787480335, "2004-12-30": 0.02015375271834441, "2004-12-31": 0.0027251913652461823, "2005-01-03": 0.0, "2005-01-04": -0.018342874922953722, "2005-01-05": -0.011073892348832493, "2005-01-06": -0.0027962225362702098, "2005-01-07": 0.0035075336830736603, "2005-01-10": -0.006993915439499454, "2005-01-11": -0.03380344428845594, "2005-01-12": 0.013121276735149845, "2005-01-13": -0.020142803052286773, "2005-01-14": -0.002204712916460405, "2005-01-17": 0.019868101692948503, "2005-01-18": -0.008659208431685661, "2005-01-19": 0.0080087435961127, "2005-01-20": -0.015162098724546547, "2005-01-21": -0.008067605497037889, "2005-01-24": 0.0, "2005-01-25": 0.022175859105837636, "2005-01-26": -0.00795677284292362, "2005-01-27": -0.010201452040026648, "2005-01-28": -0.007364811526981319, "2005-01-31": 0.008903307932809357, "2005-02-01": 0.000733655245980458, "2005-02-02": 0.016899084344473625, "2005-02-03": 0.007947060773757508, "2005-02-04": 0.020789421789090934, "2005-02-07": -0.0035096719331049187, "2005-02-08": 0.0077510214961846735, "2005-02-09": -0.009791523435853544, "2005-02-10": 0.001412419127690745, "2005-02-11": 0.022566477063702184, "2005-02-14": -0.004826468305429543, "2005-02-15": 0.0, "2005-02-16": -0.010394372434954557, "2005-02-17": -0.0020995330256613487, "2005-02-18": -0.001403671696278641, "2005-02-21": -0.01475737879999528, "2005-02-22": -0.01712058001720107, "2005-02-23": -0.00435473140097431, "2005-02-24": -0.015306164117945054, "2005-02-25": -0.000738195311079326, "2005-02-28": -0.0014818295680915083, "2005-03-01": 0.004451653966404789, "2005-03-02": 0.037664780166013045, "2005-03-03": 0.0028475686750979445, "2005-03-04": 0.004258928588082966, "2005-03-07": 0.0007048944698637705, "2005-03-08": -0.000704397943648849, "2005-03-09": 0.03886827123046377, "2005-03-10": -0.01224601893738586, "2005-03-11": 0.00964277051472573, "2005-03-14": -0.008866953138016442, "2005-03-15": 0.011699451465752242, "2005-03-16": -0.017685410863575113, "2005-03-17": -0.015237236524730968, "2005-03-18": 0.0014063810199000937, "2005-03-21": -0.0028092427999346636, "2005-03-22": 0.01056282270144182, "2005-03-23": -0.02299386247177948, "2005-03-24": -0.002853409423353326, "2005-03-25": 0.0, "2005-03-28": 0.0, "2005-03-29": -0.015738688814390223, "2005-03-30": 0.0, "2005-03-31": -0.0014539234723244254, "2005-04-01": 0.0029117258142554725, "2005-04-04": -0.007981746037139081, "2005-04-05": 0.003656197475878864, "2005-04-06": 0.010205386479915424, "2005-04-07": 0.007215855629202128, "2005-04-08": 0.00143300111850575, "2005-04-11": -0.003579059379849814, "2005-04-12": -0.012203305790595365, "2005-04-13": -0.002178877958941783, "2005-04-14": 0.01238149004988598, "2005-04-15": -0.03381154452574753, "2005-04-18": -0.021594035926015387, "2005-04-19": 0.0038033898974982883, "2005-04-20": -0.028052933810758574, "2005-04-21": 0.008583480083122597, "2005-04-22": -0.00696364309070141, "2005-04-25": -0.014797094435171299, "2005-04-26": -0.0007884681338234945, "2005-04-27": -0.010283984359086396, "2005-04-28": -0.027979208399608435, "2005-04-29": -0.0016446329850232644, "2005-05-02": 0.0, "2005-05-03": 0.004942532353503726, "2005-05-04": 0.018852959316604467, "2005-05-05": 0.008045715436353795, "2005-05-06": -0.0159635623416573, "2005-05-09": -0.002431093128182127, "2005-05-10": -0.03577243621972781, "2005-05-11": 0.010114563702097845, "2005-05-12": 0.0016697542086756556, "2005-05-13": -0.012499343112057582, "2005-05-16": -0.01940973017964054, "2005-05-17": 0.023236879561759904, "2005-05-18": 0.012614871839854214, "2005-05-19": 0.0008327027444916535, "2005-05-20": 0.021575314967444026, "2005-05-23": 0.0008146427199557937, "2005-05-24": -0.015421874147926284, "2005-05-25": 0.008240527545716692, "2005-05-26": 0.0678681938072756, "2005-05-27": 0.005358444615626068, "2005-05-30": 0.0, "2005-05-31": 0.0038104902547762, "2005-06-01": 0.024278400631533748, "2005-06-02": 0.008889765020554607, "2005-06-03": 0.012481371548572984, "2005-06-06": -0.006529190593459022, "2005-06-07": 0.022628650895246016, "2005-06-08": -0.007850530346956597, "2005-06-09": 0.002156488267429868, "2005-06-10": 0.005743774187698003, "2005-06-13": 0.009278610257738684, "2005-06-14": -0.006364286130386976, "2005-06-15": 0.007828537203975028, "2005-06-16": 0.02048109986107316, "2005-06-17": -0.000690336884617615, "2005-06-20": -0.0034650547787480335, "2005-06-21": -0.002779950149269128, "2005-06-22": 0.006969644354305915, "2005-06-23": 0.0013839955764418654, "2005-06-24": -0.011747893961975842, "2005-06-27": -0.0062927278127927755, "2005-06-28": 0.013370538291471723, "2005-06-29": 0.0852916472486096, "2005-06-30": 0.010474274456164778, "2005-07-01": 0.01589499941202388, "2005-07-04": 0.006803861491084584, "2005-07-05": -0.0027030357979977992, "2005-07-06": 0.04606885595436139, "2005-07-07": -0.006477419541872087, "2005-07-08": 0.01043185182326023, "2005-07-11": 0.013548684489373075, "2005-07-12": -0.034374408263888157, "2005-07-13": 0.0, "2005-07-14": 0.019117307182629384, "2005-07-15": -0.005175224758638408, "2005-07-18": -0.005850801564455499, "2005-07-19": 0.017659175414282746, "2005-07-20": -0.01606738236183658, "2005-07-21": -0.00783891418098881, "2005-07-22": 0.04081810953419196, "2005-07-25": 0.005060786988459576, "2005-07-26": -0.008183876094093767, "2005-07-27": 0.0006362352878139799, "2005-07-28": 0.014584750736908125, "2005-07-29": 0.016248784442895126, "2005-08-01": 0.0024605359584275455, "2005-08-02": 0.006135670831504125, "2005-08-03": 0.004266974343119179, "2005-08-04": -0.015179181861687319, "2005-08-05": -0.0024667376530826957, "2005-08-08": 0.00927381349601486, "2005-08-09": -0.004288836993914136, "2005-08-10": 0.03751496324299319, "2005-08-11": 0.001780579094190049, "2005-08-12": 0.012425644985799345, "2005-08-15": -0.009352411101273606, "2005-08-16": -0.010617551114206925, "2005-08-17": -0.008349394126873189, "2005-08-18": 0.0005999752937577707, "2005-08-19": 0.007212510667850447, "2005-08-22": 0.0011931989475439941, "2005-08-23": -0.0017861915474666201, "2005-08-24": -0.01791271420565277, "2005-08-25": -0.02066820855086071, "2005-08-26": 0.0031053824890294734, "2005-08-29": 0.0, "2005-08-30": 0.003710534163989143, "2005-08-31": 0.0141801453019057, "2005-09-01": 0.0012157558316057138, "2005-09-02": 0.0018236213645050903, "2005-09-05": 0.004240979358423047, "2005-09-06": -0.001207150718410821, "2005-09-07": 0.007854534034217098, "2005-09-08": -0.0011991214465569833, "2005-09-09": 0.021009411821588886, "2005-09-12": -0.002938226747248085, "2005-09-13": -0.012973487069939726, "2005-09-14": -0.0029854211281656884, "2005-09-15": -0.007191087793175788, "2005-09-16": -0.0072426345269438475, "2005-09-19": 0.0030415942744193014, "2005-09-20": -0.00909065453013258, "2005-09-21": -0.011620915352728245, "2005-09-22": 0.006185951787033295, "2005-09-23": 0.018452356822349802, "2005-09-26": -0.0012076078519668298, "2005-09-27": -0.008465367430050441, "2005-09-28": 0.021342530331128984, "2005-09-29": -0.011343401221741045, "2005-09-30": 0.0, "2005-10-03": -0.0006055672830166392, "2005-10-04": -0.0030195637583828594, "2005-10-05": 0.001212069208839761, "2005-10-06": -0.0024215354540009226, "2005-10-07": -0.00424986370890168, "2005-10-10": -0.026812874740969272, "2005-10-11": -0.030053517037719746, "2005-10-12": 0.00968283337056497, "2005-10-13": -0.035165553730371224, "2005-10-14": 0.021205276640215764, "2005-10-17": 0.015573080945557871, "2005-10-18": -0.0006376843611867189, "2005-10-19": -0.03133192584325861, "2005-10-20": -0.0019788853849851407, "2005-10-21": -0.013229231299591415, "2005-10-24": 0.018097062302581124, "2005-10-25": 0.017118669098024064, "2005-10-26": 0.012943517392908666, "2005-10-27": -0.026837383927320713, "2005-10-28": 0.0026265057786025725, "2005-10-31": 0.008513014989886658, "2005-11-01": 0.00909218853763516, "2005-11-02": 0.012226293298138069, "2005-11-03": 0.0025433008968687165, "2005-11-04": -0.003804816181553261, "2005-11-07": 0.005092506967782295, "2005-11-08": 0.023433543663215817, "2005-11-09": 0.019180865877089337, "2005-11-10": 0.02611010571246264, "2005-11-11": 0.0059176320433937946, "2005-11-14": -0.014119250740225575, "2005-11-15": 0.002386991573492203, "2005-11-16": 0.0011906236639709356, "2005-11-17": 0.046372767140465454, "2005-11-18": 0.02556977047427167, "2005-11-21": 0.0005527744136972768, "2005-11-22": 0.0033226710774973967, "2005-11-23": 0.06805813735626587, "2005-11-24": -0.009812817939272689, "2005-11-25": -0.0005525293795828334, "2005-11-28": -0.0016515927581544076, "2005-11-29": -0.0016570852544139925, "2005-11-30": -0.018794807382084833, "2005-12-01": 0.039438914441979556, "2005-12-02": 0.017884199670663792, "2005-12-05": -0.0026610984442263508, "2005-12-06": 0.017083927250542974, "2005-12-07": 0.00787363685530984, "2005-12-08": 0.005731072956136618, "2005-12-09": 0.009839388645944025, "2005-12-12": 0.0041002966975300925, "2005-12-13": -0.014299205101707346, "2005-12-14": -0.004662359281613848, "2005-12-15": 0.0020821300847928548, "2005-12-16": 0.018180410793715573, "2005-12-19": 0.0020408145621528817, "2005-12-20": -0.0055999226945222524, "2005-12-21": -0.012801220051715911, "2005-12-22": -0.011409504208027443, "2005-12-23": 0.0031453644026597782, "2005-12-26": 0.0, "2005-12-27": 0.0, "2005-12-28": -0.0005212936189507023, "2005-12-29": -0.0015688440476655519, "2005-12-30": 0.0010482652214001131, "2006-01-03": 0.016228291818674245, "2006-01-04": 0.009788820559349931, "2006-01-05": 0.02091960773300494, "2006-01-06": 0.004496925673244334, "2006-01-09": 0.0004988817499524956, "2006-01-10": -0.0004986329910533494, "2006-01-11": 0.021394697395336726, "2006-01-12": -0.019972424189034887, "2006-01-13": -0.0054663242740312645, "2006-01-16": -0.004497239819777676, "2006-01-17": -0.0070289654607706975, "2006-01-18": -0.00809010467251925, "2006-01-19": 0.010195031993913029, "2006-01-20": 0.012108192051017541, "2006-01-23": 0.0, "2006-01-24": -0.014457229876908895, "2006-01-25": 0.024279460246892093, "2006-01-26": 0.01382928200580702, "2006-01-27": 0.011202828795410902, "2006-01-30": -0.01445235004654033, "2006-01-31": -0.0009777698406616686, "2006-02-01": 0.021038317542719787, "2006-02-02": -0.008145159895734833, "2006-02-03": 0.0, "2006-02-06": 0.005795166100843296, "2006-02-07": 0.019694072756887948, "2006-02-08": -0.02166789803093716, "2006-02-09": 0.014925794509541568, "2006-02-10": -0.003795253536452381, "2006-02-13": 0.009524664833974628, "2006-02-14": -0.002359680158988575, "2006-02-15": 0.005674429315174256, "2006-02-16": 0.033849466232856784, "2006-02-17": 0.0009099259163216633, "2006-02-20": 0.026805587662373842, "2006-02-21": 0.014158786676116586, "2006-02-22": -0.007416743748652865, "2006-02-23": 0.0026375883517735232, "2006-02-24": 0.0065758306488028495, "2006-02-27": 0.02351949833545608, "2006-02-28": -0.016596458957969906, "2006-03-01": -0.006056572831171336, "2006-03-02": 0.017848319090387088, "2006-03-03": -0.023950769714763287, "2006-03-06": 0.014022359469443524, "2006-03-07": -0.029385597687265452, "2006-03-08": -0.01869995869542629, "2006-03-09": 0.014518423227453559, "2006-03-10": 0.004472947549513995, "2006-03-13": 0.016472284942528947, "2006-03-14": 0.0017523477976804092, "2006-03-15": 0.0332309110848914, "2006-03-16": -0.007194065994915233, "2006-03-17": 0.0017050218082010904, "2006-03-20": -0.003828819920265625, "2006-03-21": -0.004272147799617709, "2006-03-22": 0.00900863824846021, "2006-03-23": -0.0012742446964891796, "2006-03-24": 0.008939778838298329, "2006-03-27": -0.008016733699335754, "2006-03-28": 0.014034941813438895, "2006-03-29": 0.0004207036645675899, "2006-03-30": 0.007966487718480852, "2006-03-31": 0.025374110429944974, "2006-04-03": 0.0255577657181969, "2006-04-04": -0.007515605123581626, "2006-04-05": 0.026304224316287872, "2006-04-06": 0.012039587845354527, "2006-04-07": -0.012663855521458212, "2006-04-10": -0.017100763652963313, "2006-04-11": -0.013443635480571037, "2006-04-12": -0.017233384338895985, "2006-04-13": 0.04282209107704649, "2006-04-18": 0.00860277474010851, "2006-04-19": 0.01589856358062347, "2006-04-20": 0.011830398517580498, "2006-04-21": -0.0041487948862748425, "2006-04-24": -0.020832849027415112, "2006-04-25": -0.0011597069421745987, "2006-04-26": 0.010843527130998787, "2006-04-27": -0.019157451236774814, "2006-04-28": -0.012891169515545586, "2006-05-02": 0.024536059725986492, "2006-05-03": 0.008111147849456213, "2006-05-04": 0.008428244792383799, "2006-05-05": 0.026597126447890584, "2006-05-08": 0.008512307424283438, "2006-05-09": -0.026789726674747993, "2006-05-10": -0.009805023724609896, "2006-05-11": -0.013708629361611435, "2006-05-12": -0.026641341622143044, "2006-05-15": -0.04799539437691258, "2006-05-16": -0.036667030355432284, "2006-05-17": -0.017300790633843044, "2006-05-18": -0.00968448149381429, "2006-05-19": 0.013335008812054516, "2006-05-22": -0.06052701158155949, "2006-05-23": 0.03221318681524776, "2006-05-24": -0.007237181060110842, "2006-05-25": 0.04100247641730714, "2006-05-26": 0.03501090838630039, "2006-05-30": -0.04439759576578062, "2006-05-31": 0.03495681725431976, "2006-06-01": 0.03462889195198149, "2006-06-02": 0.009504171857397381, "2006-06-05": 0.0004103756344988607, "2006-06-06": -0.04664418265036163, "2006-06-07": 0.0154505675373251, "2006-06-08": -0.03592695536562951, "2006-06-09": 0.026742765714601102, "2006-06-12": 0.010674445269832855, "2006-06-13": -0.04309101389404457, "2006-06-14": 0.006622001050972326, "2006-06-15": 0.039911352006330114, "2006-06-16": -0.008857013928099566, "2006-06-19": 0.019575065140564618, "2006-06-20": 0.001251191884947156, "2006-06-21": 0.0, "2006-06-22": 0.03001388287345308, "2006-06-23": 0.006473564411715094, "2006-06-26": 0.00965191526705289, "2006-06-27": -0.011949491295908499, "2006-06-28": 0.0016126655636379272, "2006-06-29": 0.011670596186161397, "2006-06-30": 0.013523837622824164, "2006-07-03": 0.004710054252829332, "2006-07-04": 0.0058590862766669805, "2006-07-05": 0.02985692244525784, "2006-07-06": 0.02457688370116462, "2006-07-07": -0.008652328348095817, "2006-07-10": 0.013090488295677938, "2006-07-11": -0.018011078167088135, "2006-07-12": 0.009968470856264622, "2006-07-13": -0.036715043804160574, "2006-07-14": -0.013933906205008229, "2006-07-17": -0.026600973793877936, "2006-07-18": -0.021349891843861712, "2006-07-19": 0.0318505360895851, "2006-07-20": 0.010571049546158395, "2006-07-21": -0.023012328514189995, "2006-07-24": 0.03982824825206266, "2006-07-25": 0.01688733276787735, "2006-07-26": -0.01741708882962978, "2006-07-27": 0.018137056319032396, "2006-07-28": -0.004859000466368224, "2006-07-31": -0.0016255094563034644, "2006-08-01": -0.011411258175764938, "2006-08-02": 0.01195421336869984, "2006-08-03": -0.00936853443633101, "2006-08-04": 0.002877397040039309, "2006-08-07": -0.014760198918619682, "2006-08-08": 0.004579714487168207, "2006-08-09": 0.0037275101627458618, "2006-08-10": -0.007429831621672656, "2006-08-11": 0.00914872454684601, "2006-08-14": -0.011793593930445212, "2006-08-15": 0.03821976549808204, "2006-08-16": 0.02168474407111498, "2006-08-17": 0.0035392033005663404, "2006-08-18": -0.00939959938154078, "2006-08-21": -0.007712098278948809, "2006-08-22": 0.0065732548037011895, "2006-08-23": -0.004748888505195392, "2006-08-24": 0.005368897121728944, "2006-08-25": 0.014244455195783878, "2006-08-29": -0.0029262435337615855, "2006-08-30": 0.0011730009146386777, "2006-08-31": -0.009964421277681712, "2006-09-01": 0.008881291613235698, "2006-09-04": 0.028170090751914456, "2006-09-05": 0.014267341770421993, "2006-09-06": -0.01856897736292218, "2006-09-07": -0.009175552579589685, "2006-09-08": 0.013311299589247039, "2006-09-11": 0.007423739627662629, "2006-09-12": 0.0056704548535431165, "2006-09-13": -0.024239325182614624, "2006-09-14": -0.005202284773672572, "2006-09-15": -0.001160211919777443, "2006-09-18": -0.005811808312896627, "2006-09-19": -0.004093637137789097, "2006-09-20": 0.02407436970427934, "2006-09-21": -0.0057354738873660605, "2006-09-22": -0.019607494012172988, "2006-09-25": -0.02352752814213155, "2006-09-26": 0.02770863936170742, "2006-09-27": 0.026965459328819552, "2006-09-28": 0.011986287961367026, "2006-09-29": 0.010714915102979505, "2006-10-02": -0.006136826122604799, "2006-10-03": -0.01179067745421869, "2006-10-04": -0.007956598420319039, "2006-10-05": 0.009164973816369715, "2006-10-06": -0.002838736015895571, "2006-10-09": 0.0056933387320032836, "2006-10-10": 0.06533012882367784, "2006-10-11": -0.00993723679516234, "2006-10-12": 0.006339366090200249, "2006-10-13": -0.000524356338512777, "2006-10-16": -0.01838308702630287, "2006-10-17": -0.015517079734840955, "2006-10-18": 0.04619653912615407, "2006-10-19": -0.0109084253652042, "2006-10-20": 0.01680524006101103, "2006-10-23": -0.0010316527805179776, "2006-10-24": -0.0025864346437433072, "2006-10-25": -0.006219484036688372, "2006-10-26": 0.005737610102324764, "2006-10-27": 0.0051864309404277, "2006-10-30": -0.013416072330528439, "2006-10-31": 0.020920379795625, "2006-11-01": -0.010245740927877445, "2006-11-02": -0.0025872671067264097, "2006-11-03": 0.006744440972098031, "2006-11-06": 0.012372869737851122, "2006-11-07": -0.0010192276767664321, "2006-11-08": -0.005096760420518653, "2006-11-09": -0.0030742511306424136, "2006-11-10": 0.001028385136938148, "2006-11-13": -0.0102665066449108, "2006-11-14": 0.0062225698957407705, "2006-11-15": -0.008486654724976672, "2006-11-16": 0.01937325599992623, "2006-11-17": -0.009246265366881778, "2006-11-20": 0.011923504727219036, "2006-11-21": -0.0061483940362001555, "2006-11-22": 0.011856042140442558, "2006-11-23": 0.0025476757745059864, "2006-11-24": -0.01473621475312692, "2006-11-27": -0.01959659937016267, "2006-11-28": -0.011047995823515344, "2006-11-29": 0.008510912612605948, "2006-11-30": 0.0, "2006-12-01": -0.008966036624854179, "2006-12-04": 0.01011218702759309, "2006-12-05": 0.011590191552394158, "2006-12-06": 0.02448038698163968, "2006-12-07": 0.017284789572379555, "2006-12-08": 0.0014993913315755059, "2006-12-11": 0.014471551008430339, "2006-12-12": -0.02115082077607422, "2006-12-13": -0.005529256744797761, "2006-12-14": 0.021728518502102778, "2006-12-15": 0.007913146389627146, "2006-12-18": 0.006869529730171076, "2006-12-19": -0.00779636985796528, "2006-12-20": 0.01276847960639782, "2006-12-21": 0.0082444272489417, "2006-12-22": 0.01106303705892886, "2006-12-27": -0.0009505436956933622, "2006-12-28": -0.0014286442782627251, "2006-12-29": -0.0028612534204580653, "2007-01-02": 0.016738901432381992, "2007-01-03": 0.0009398119464387733, "2007-01-04": -0.005638212317940705, "2007-01-05": -0.00803538556863359, "2007-01-08": -0.005240131287916672, "2007-01-09": -0.0014367321041544034, "2007-01-10": -0.017745498995242692, "2007-01-11": 0.021483766988078523, "2007-01-12": -0.0004773278205341125, "2007-01-15": 0.009564559531747951, "2007-01-16": -0.01089551649343734, "2007-01-17": 0.018678489323886938, "2007-01-18": 0.01222443699971043, "2007-01-19": 0.006966033087144385, "2007-01-22": 0.006919536876105692, "2007-01-23": -0.007787262732607991, "2007-01-24": 0.023083942025318827, "2007-01-25": -0.003158926144550822, "2007-01-26": -0.015392637251515073, "2007-01-29": 0.004138386962255325, "2007-01-30": -0.015567222429572203, "2007-01-31": -0.005115584838274567, "2007-02-01": 0.023375128352531416, "2007-02-02": -0.0009148026723486691, "2007-02-05": 0.04389608644889509, "2007-02-06": 0.014454942955200334, "2007-02-07": -0.015544262599370695, "2007-02-08": 0.0017540521700933898, "2007-02-09": 0.03590220290520896, "2007-02-12": -0.026204979839881126, "2007-02-13": -0.024305746685858498, "2007-02-14": 0.030250051154005586, "2007-02-15": 0.0069087397949434415, "2007-02-16": 0.009433016293438401, "2007-02-19": 0.012744028636111349, "2007-02-20": -0.005872201294210844, "2007-02-21": -0.008438660367370177, "2007-02-22": 0.009787138841957477, "2007-02-23": -0.000421022146754213, "2007-02-26": -0.00843143257647494, "2007-02-27": -0.052722019493520955, "2007-02-28": -0.014361357930603669, "2007-03-01": -0.020492475299605517, "2007-03-02": -0.0037186807002121958, "2007-03-05": -0.013066557441143711, "2007-03-06": 0.001418634748759695, "2007-03-07": -0.009443064152562797, "2007-03-08": 0.03002870244652245, "2007-03-09": 0.0037028062039401455, "2007-03-12": -0.018443311583427935, "2007-03-13": -0.03569577562239401, "2007-03-14": -0.04042852502647132, "2007-03-15": 0.06903371572724448, "2007-03-16": -0.001422709470521144, "2007-03-19": 0.021396644834378975, "2007-03-20": 0.007449152344608079, "2007-03-21": 0.009241907456598808, "2007-03-22": 0.0174001204735732, "2007-03-23": 0.0017998363696456465, "2007-03-26": -0.018868410634019228, "2007-03-27": -0.002747756323123185, "2007-03-28": -0.0027549600962871734, "2007-03-29": 0.0405165869307611, "2007-03-30": -0.01769912561762954, "2007-04-02": 0.011712033760455043, "2007-04-03": 0.010685502626623045, "2007-04-04": 0.0035232131175693127, "2007-04-05": -0.016680281482366555, "2007-04-10": 0.009822085778002698, "2007-04-11": -0.010611541607725594, "2007-04-12": -0.008936504052128758, "2007-04-13": 0.005410912600341877, "2007-04-16": 0.020627954564962137, "2007-04-17": -0.0026362250190519187, "2007-04-18": 0.00528649979073581, "2007-04-19": -0.011393251380762193, "2007-04-20": -0.015070906008633922, "2007-04-23": -0.0018013728157989517, "2007-04-24": -0.009917625232659155, "2007-04-25": 0.00819570255132529, "2007-04-26": 0.014454181909560493, "2007-04-27": -0.009795726874838429, "2007-04-30": 0.01618728729721508, "2007-05-01": -0.007963963090511728, "2007-05-02": 0.036573093422176406, "2007-05-03": -0.014629389000697102, "2007-05-04": 0.02096165806249961, "2007-05-08": -0.015398099271644372, "2007-05-09": -0.009557427804472884, "2007-05-10": 0.007017709814135298, "2007-05-11": 0.0008703992677936423, "2007-05-14": -0.006961715305255911, "2007-05-15": -0.0017540140781096003, "2007-05-16": -0.0017555935963885494, "2007-05-17": 0.016711583234704452, "2007-05-18": 0.001729885450411528, "2007-05-21": -0.0077727550945521084, "2007-05-22": 0.01653658997910501, "2007-05-23": 0.009418555083212876, "2007-05-24": -0.005089651293642916, "2007-05-25": -0.009378402772638461, "2007-05-29": 0.009467189892576222, "2007-05-30": -0.010229917824838619, "2007-05-31": 0.013780418221650104, "2007-06-01": 0.020001789521321367, "2007-06-04": -0.017110673939096044, "2007-06-05": -0.012711741288206069, "2007-06-06": -0.006867117204182538, "2007-06-07": -0.025063772418679187, "2007-06-08": 0.009750325208800703, "2007-06-11": 0.021950527728286096, "2007-06-12": 0.0051536590287599715, "2007-06-13": 0.007693377225776343, "2007-06-14": 0.026292195487641834, "2007-06-15": 0.021488206836537183, "2007-06-18": 0.004854829680088102, "2007-06-19": -0.0144929593325831, "2007-06-20": 0.02205855283330882, "2007-06-21": -0.0047969345724486745, "2007-06-22": 0.004820056066032974, "2007-06-25": -0.011190502132719216, "2007-06-26": -0.016977093023267553, "2007-06-27": -0.031249689719337614, "2007-06-28": 0.026315863338645107, "2007-06-29": 0.007443569012145046, "2007-07-02": 0.00984884364075489, "2007-07-03": 0.0016300857589031104, "2007-07-04": 0.007709334650846111, "2007-07-05": -0.026015625842294887, "2007-07-06": 0.002504112158213001, "2007-07-09": 0.0008318588485354272, "2007-07-10": -0.01331017574062865, "2007-07-11": -0.0008435865085999472, "2007-07-12": 0.04050642078731137, "2007-07-13": 0.02757560151327154, "2007-07-16": -0.01026071195308309, "2007-07-17": -0.022328608149634777, "2007-07-18": -0.017129502211843617, "2007-07-19": -0.0033189900351676682, "2007-07-20": -0.0033313406016113323, "2007-07-23": 0.018380357293757532, "2007-07-24": 0.006563122747587302, "2007-07-25": -0.014670078934302389, "2007-07-26": -0.041356191085693994, "2007-07-27": -0.028473097697421568, "2007-07-30": -0.030196112708797074, "2007-07-31": 0.04029346921857857, "2007-08-01": -0.05457792048920007, "2007-08-02": 0.006518924216389443, "2007-08-03": 0.004623603236524554, "2007-08-06": -0.03498898857089605, "2007-08-07": 0.031488412354101936, "2007-08-08": 0.04532752298212106, "2007-08-09": -0.0672569068408212, "2007-08-10": -0.09060625922280496, "2007-08-13": 0.06833485460144617, "2007-08-14": -0.0341794740936352, "2007-08-15": -0.014661628115133829, "2007-08-16": -0.0831198309907395, "2007-08-17": 0.027420749241617415, "2007-08-20": 0.01198298152361077, "2007-08-21": -0.01399367525031281, "2007-08-22": 0.05130925270407727, "2007-08-23": 0.01765469405100939, "2007-08-24": -0.025511668566480683, "2007-08-28": -0.009423172113889655, "2007-08-29": 0.012156483373066296, "2007-08-30": 0.015665536851535933, "2007-08-31": 0.014910319720550236, "2007-09-03": 0.007091822476444909, "2007-09-04": 0.022132305391933116, "2007-09-05": -0.03690854276103306, "2007-09-06": 0.009197383132396153, "2007-09-07": -0.03240451057312155, "2007-09-10": -0.015176001460180943, "2007-09-11": 0.03400587336211225, "2007-09-12": 0.002055113616187043, "2007-09-13": 0.012821536262680011, "2007-09-14": -0.018733968823519298, "2007-09-17": -0.03560402030358423, "2007-09-18": 0.022472600543535615, "2007-09-19": 0.059131186141050396, "2007-09-20": -0.001975975644104233, "2007-09-21": 0.01980166224015223, "2007-09-24": 0.015532954327251991, "2007-09-25": 0.021988735203703813, "2007-09-26": 0.009354484885206737, "2007-09-27": 0.029658109187788106, "2007-09-28": -0.003601203936276054, "2007-10-01": -0.00993734207182062, "2007-10-02": 0.01733653236307342, "2007-10-03": 0.013453044610965303, "2007-10-04": -0.0035393879975995635, "2007-10-05": 0.022202267184757263, "2007-10-08": 0.0008679949445209445, "2007-10-09": 0.003473040047255127, "2007-10-10": -0.01211120530310994, "2007-10-11": -0.021891560612572247, "2007-10-12": -0.0008943017119380503, "2007-10-15": -0.02867484568975387, "2007-10-16": -0.014759005131099623, "2007-10-17": 0.030898751142295566, "2007-10-18": -0.009991430053721717, "2007-10-19": -0.009174382094361166, "2007-10-22": -0.023147748983041727, "2007-10-23": 0.018008713530630827, "2007-10-24": 0.0018617887954386347, "2007-10-25": 0.03903456461971411, "2007-10-26": 0.0026838756867963998, "2007-10-29": 0.0, "2007-10-30": 0.027652467823854332, "2007-10-31": 0.020834290995597193, "2007-11-01": -0.032313320667103684, "2007-11-02": 0.009665613233875492, "2007-11-05": -0.026109811681242934, "2007-11-06": 0.01519292404487027, "2007-11-07": -0.015844897286066417, "2007-11-08": -0.008050933587904208, "2007-11-09": -0.03696904328591155, "2007-11-12": 0.020598598377788324, "2007-11-13": -0.014679306808501269, "2007-11-14": 0.02141559061685827, "2007-11-15": -0.014584334268358146, "2007-11-16": -0.016427734879240652, "2007-11-19": -0.06465400040275149, "2007-11-20": 0.032680240399319604, "2007-11-21": -0.03992255487898955, "2007-11-22": 0.03245560336422937, "2007-11-23": 0.012768719552909147, "2007-11-26": -0.11989444903434499, "2007-11-27": 0.0381980526206267, "2007-11-28": 0.05602683209562942, "2007-11-29": -0.01727284799920048, "2007-11-30": 0.02867742262844364, "2007-12-03": -0.008993008458488161, "2007-12-04": -0.011796458270134647, "2007-12-05": 0.028466085791414075, "2007-12-06": 0.0214289231955076, "2007-12-07": 0.002622349772665844, "2007-12-10": 0.0008716222798956785, "2007-12-11": 0.011324212901516306, "2007-12-12": 0.0060292634474008455, "2007-12-13": -0.018835762363114905, "2007-12-14": 0.002618147915129043, "2007-12-17": -0.04264604054207133, "2007-12-18": -0.006363742593434418, "2007-12-19": -0.010063697088160906, "2007-12-20": 0.020332671058480356, "2007-12-21": 0.029891045886455414, "2007-12-24": 0.012313182432689418, "2007-12-27": -0.009556887450435703, "2007-12-28": -0.007017427545869759, "2007-12-31": 0.0053003595469276465, "2008-01-02": -0.015817556141998756, "2008-01-03": -0.016964087563760333, "2008-01-04": -0.03996358723218618, "2008-01-07": -0.027436138387354037, "2008-01-08": 0.018482475238386753, "2008-01-09": 0.009551111584845673, "2008-01-10": -0.04068119053489094, "2008-01-11": 0.016765274891510362, "2008-01-14": 0.02812803018259502, "2008-01-15": 0.006603949909109286, "2008-01-16": -0.02811637613361273, "2008-01-17": -0.027000999172812512, "2008-01-18": -0.03022786277229439, "2008-01-21": -0.03730190416453727, "2008-01-22": 0.05891701291216167, "2008-01-23": 0.00751878406895834, "2008-01-24": 0.08457718885731702, "2008-01-25": 0.0, "2008-01-28": -0.017431247577137543, "2008-01-29": -0.010270753512312547, "2008-01-30": 0.0009434277636344301, "2008-01-31": 0.03015999488611465, "2008-02-01": 0.06678930617460854, "2008-02-04": -0.03516344047720266, "2008-02-05": -0.016888688807634944, "2008-02-06": 0.01356217445902197, "2008-02-07": -0.011596769802703633, "2008-02-08": 0.021660805960260543, "2008-02-11": -0.037985813689839776, "2008-02-12": 0.022956571865960562, "2008-02-13": 0.040395123828926405, "2008-02-14": -0.0077652940137337145, "2008-02-15": -0.03478258664918421, "2008-02-18": 0.03603601237200449, "2008-02-19": 0.008695664069745535, "2008-02-20": -0.008620701346788273, "2008-02-21": -0.02173925028351409, "2008-02-22": -0.0026666388210546677, "2008-02-25": 0.03386820267995505, "2008-02-26": 0.011206876829998436, "2008-02-27": 0.010230376211608272, "2008-02-28": -0.0337554293831247, "2008-02-29": -0.030567689559563904, "2008-03-03": -0.04144149209546699, "2008-03-04": 0.006578923806680459, "2008-03-05": 0.056956217849236435, "2008-03-06": -0.02296816090136955, "2008-03-07": -0.009945856094594085, "2008-03-10": -0.03379009434611557, "2008-03-11": 0.024574839668904058, "2008-03-12": 0.03874523465660373, "2008-03-13": -0.017761761155599576, "2008-03-14": -0.02169977554803859, "2008-03-17": -0.10166356424990786, "2008-03-18": 0.0895056402800527, "2008-03-19": 0.0028331035398703186, "2008-03-20": -0.01694904166074629, "2008-03-25": 0.02873580640428197, "2008-03-26": 0.0158283264156176, "2008-03-27": 0.026580987056966432, "2008-03-28": -0.009821216902959451, "2008-03-31": 0.0, "2008-04-01": 0.03516669866367206, "2008-04-02": 0.0008714253280601714, "2008-04-03": -0.024369293692145466, "2008-04-04": 0.013380959341784182, "2008-04-07": 0.03345087456141904, "2008-04-08": -0.022146776007766267, "2008-04-09": -0.007839763006382117, "2008-04-10": -0.015803234994544835, "2008-04-11": -0.007136812780115354, "2008-04-14": -0.011679807059903458, "2008-04-15": 0.03818186463813422, "2008-04-16": 0.02189160684554614, "2008-04-17": -0.021422631029452077, "2008-04-18": 0.02977224099139164, "2008-04-21": -0.02040800697623546, "2008-04-22": -0.009548840053253294, "2008-04-23": 0.004382160976486693, "2008-04-24": 0.0, "2008-04-25": -0.0008723830481436323, "2008-04-28": 0.01048023422806632, "2008-04-29": -0.014693159178062354, "2008-04-30": 0.02017562221873348, "2008-05-01": -0.005159263371897094, "2008-05-02": 0.016421707468592173, "2008-05-06": -0.006802604907020227, "2008-05-07": 0.008561776888723172, "2008-05-08": 0.005093384317064631, "2008-05-09": -0.006757009617691212, "2008-05-12": 0.0008505569203847152, "2008-05-13": 0.010195423822100924, "2008-05-14": 0.005046203696982721, "2008-05-15": 0.0008367297691695974, "2008-05-16": 0.003344727455067975, "2008-05-19": -0.007500158921880162, "2008-05-20": -0.03694372845465543, "2008-05-21": -0.01133396014028809, "2008-05-22": 0.011463891428794781, "2008-05-23": -0.002615491040330875, "2008-05-27": 0.005244699545331466, "2008-05-28": 0.023478320021057986, "2008-05-29": 0.0518264609634127, "2008-05-30": 0.003231369661724326, "2008-06-02": 0.007245949883690095, "2008-06-03": -0.0015984359041303353, "2008-06-04": 0.00240155282749277, "2008-06-05": -0.014376849286691362, "2008-06-06": -0.009724249876184143, "2008-06-09": 0.016366745115082848, "2008-06-10": -0.0008052972731555919, "2008-06-11": -0.025785916726728808, "2008-06-12": 0.030604112535455474, "2008-06-13": -0.012841220562932465, "2008-06-16": -0.0048781123310516206, "2008-06-17": 0.016340008798780614, "2008-06-18": -0.016077305485683757, "2008-06-19": 0.0, "2008-06-20": 0.013071794615916232, "2008-06-23": -0.012903127582257978, "2008-06-24": 0.015522749371972067, "2008-06-25": 0.0024138355815674917, "2008-06-26": -0.015248782376588998, "2008-06-27": -0.004075011649808613, "2008-06-30": 0.021276321908153983, "2008-07-01": -0.03125001191244603, "2008-07-02": -0.0016540854497535395, "2008-07-03": -0.02236950587587827, "2008-07-04": -0.012711850232725919, "2008-07-07": 0.012017120117217228, "2008-07-08": -0.03223086751543214, "2008-07-09": 0.03330429379648159, "2008-07-10": 0.011874667443372067, "2008-07-11": 0.007544044444075082, "2008-07-14": 0.03494161979886057, "2008-07-15": -0.030546719123211274, "2008-07-16": 0.010246335522092753, "2008-07-17": 0.03101467243950018, "2008-07-18": 0.009755833193035635, "2008-07-21": 0.004830957198467711, "2008-07-22": -0.03125003326118947, "2008-07-23": 0.014888344142697463, "2008-07-24": -0.013039966872318454, "2008-07-25": -0.023121272562822814, "2008-07-28": -0.005917366558405468, "2008-07-29": -0.005102024087988322, "2008-07-30": 0.04444444120318902, "2008-07-31": 0.005728515547338997, "2008-08-01": 0.008950172268781476, "2008-08-04": -0.010483770654380775, "2008-08-05": -0.07905455882625423, "2008-08-06": -0.02654870745871063, "2008-08-07": 0.006363540551470814, "2008-08-08": -0.024390129580141084, "2008-08-11": 0.018518496137555518, "2008-08-12": -0.021818237271531093, "2008-08-13": -0.01486979280358014, "2008-08-14": -0.020754868606367438, "2008-08-15": -0.02408495810259048, "2008-08-18": 0.02566657934865102, "2008-08-19": -0.024061300975747546, "2008-08-20": 0.04930932365263807, "2008-08-21": -0.015037432619884106, "2008-08-22": 0.040075993332792326, "2008-08-26": 0.011926751099480049, "2008-08-27": -0.013599133511688288, "2008-08-28": 0.021139839182465314, "2008-08-29": 0.024302376353151356, "2008-09-01": -0.01142374616635733, "2008-09-02": -0.0391113401614096, "2008-09-03": -0.027751799256395815, "2008-09-04": -0.039010547744347424, "2008-09-05": -0.024257239137831732, "2008-09-08": 0.0350071886015737, "2008-09-09": -0.012744978850304012, "2008-09-10": 0.033763781335387044, "2008-09-11": 0.009606206059783018, "2008-09-12": -0.022835185913612333, "2008-09-15": -0.08909456035696028, "2008-09-16": -0.01603441678041584, "2008-09-17": -0.03747941311849978, "2008-09-18": -0.08521454348945479, "2008-09-19": 0.1597782429413055, "2008-09-22": -0.07765995372847079, "2008-09-23": -0.08189141285027435, "2008-09-24": 0.025125510858216238, "2008-09-25": -0.06188731675784798, "2008-09-26": -0.02351396651033688, "2008-09-29": -0.18260873433659663, "2008-09-30": 0.10229135414196922, "2008-10-01": 0.041573972025451544, "2008-10-02": -0.016393441437332235, "2008-10-03": 0.01304348049868187, "2008-10-06": -0.18097294976832345, "2008-10-07": 0.07772938577543775, "2008-10-08": -0.027552601137636246, "2008-10-09": 0.037499839821506065, "2008-10-10": -0.058634564635246744, "2008-10-13": 0.15187744468268982, "2008-10-14": 0.07185175241522024, "2008-10-15": -0.08915012991474403, "2008-10-16": -0.059180544313514605, "2008-10-17": 0.024999907569645652, "2008-10-20": 0.11014973252430282, "2008-10-21": -0.025513732472982054, "2008-10-22": 0.02981788454800882, "2008-10-23": -0.0035308752897620366, "2008-10-24": -0.10276368826629168, "2008-10-27": -0.007899328235374203, "2008-10-28": -0.04617798911890947, "2008-10-29": 0.15358906672651407, "2008-10-30": 0.028943530152138353, "2008-10-31": 0.0014065448945073111, "2008-11-03": 0.013342543604033086, "2008-11-04": 0.11711715927333488, "2008-11-05": -0.02667501634590763, "2008-11-06": -0.31166341915323026, "2008-11-07": 0.021296174774784182, "2008-11-10": 0.01813228387165622, "2008-11-11": -0.11665165635058761, "2008-11-12": -0.2338710470069385, "2008-11-13": 0.09736862358780685, "2008-11-14": 0.07673845803246127, "2008-11-17": -0.06904229273981421, "2008-11-18": -0.005980943946340744, "2008-11-19": 0.04091496564779429, "2008-11-20": -0.08254349960526886, "2008-11-21": 0.03578596305920412, "2008-11-24": 0.10097352053108066, "2008-11-25": 0.05635359895401226, "2008-11-26": 0.06226033110785134, "2008-11-27": 0.016580389911575732, "2008-11-28": 0.022426267986830117, "2008-12-01": -0.07377874844733012, "2008-12-02": 0.03336909210662076, "2008-12-03": 0.06666678110555302, "2008-12-04": 0.054687470307192454, "2008-12-05": -0.03055538315325168, "2008-12-08": 0.07067795434677837, "2008-12-09": 0.031222000003112038, "2008-12-10": 0.0380623433748819, "2008-12-11": -0.030833268145780468, "2008-12-12": -0.1547722018290686, "2008-12-15": 0.03255349856660383, "2008-12-16": -0.05418730179105613, "2008-12-17": -0.013541495598032194, "2008-12-18": 0.012671494891014934, "2008-12-19": -0.01981214763124961, "2008-12-22": -0.044680926001370636, "2008-12-23": -0.015590296144028515, "2008-12-24": 0.048642609897649125, "2008-12-29": 0.004315099548343415, "2008-12-30": 0.008592629343863623, "2008-12-31": 0.011714643563499827, "2009-01-02": 0.00631602688604449, "2009-01-05": 0.023012229124047767, "2009-01-06": 0.1738245214996279, "2009-01-07": -0.09407684620527401, "2009-01-08": -0.026923127007196124, "2009-01-09": -0.03656118004636877, "2009-01-12": -0.056410228286790876, "2009-01-13": -0.020652161961930093, "2009-01-14": -0.06770254548478571, "2009-01-15": 0.014285602480478277, "2009-01-16": 0.0598591663045398, "2009-01-19": -0.048726462934426396, "2009-01-20": -0.003492324425233728, "2009-01-21": 0.03154204429146734, "2009-01-22": -0.06342012197905744, "2009-01-23": 0.04232164361385227, "2009-01-26": 0.039443228167817646, "2009-01-27": -0.03794649587293242, "2009-01-28": 0.029002393691381023, "2009-01-29": -0.09019176478402169, "2009-01-30": 0.022304821205823666, "2009-02-02": -0.11030306848822546, "2009-02-03": 0.03923700088764748, "2009-02-04": 0.07105428556407833, "2009-02-05": 0.0012238159451716246, "2009-02-06": 0.025672332285713084, "2009-02-09": 0.019070337588916964, "2009-02-10": -0.044444256261764736, "2009-02-11": -0.01224004774198617, "2009-02-12": 0.029739620403431033, "2009-02-13": -0.028880718789648596, "2009-02-16": -0.041387772267345024, "2009-02-17": -0.07445729490198438, "2009-02-18": 0.02849176122035213, "2009-02-19": -0.03096142765401344, "2009-02-20": -0.04876667781602184, "2009-02-23": 0.02121371717518805, "2009-02-24": -0.01557966897071228, "2009-02-25": 0.04044538750662974, "2009-02-26": 0.0388732343939624, "2009-02-27": -0.06778770453134964, "2009-03-02": -0.05526456450353878, "2009-03-03": -0.026477760116426108, "2009-03-04": 0.08096145504921926, "2009-03-05": -0.10708004150983708, "2009-03-06": 0.04259489869768429, "2009-03-09": -0.02262718799072816, "2009-03-10": 0.13054637797767632, "2009-03-11": 0.08020470855606576, "2009-03-12": -0.01421795533520831, "2009-03-13": 0.030983062039287246, "2009-03-16": 0.010362695594792193, "2009-03-17": -0.024102588433968952, "2009-03-18": -0.0026275862214298895, "2009-03-19": 0.04320343594050513, "2009-03-20": 0.05429293421185788, "2009-03-23": 0.02035919969381328, "2009-03-24": -0.05516435999099489, "2009-03-25": 0.031055996253709583, "2009-03-26": 0.05542158022205568, "2009-03-27": -0.027397210379470516, "2009-03-30": -0.06525819870920757, "2009-03-31": 0.09743857725080685, "2009-04-01": -0.0034323871708739073, "2009-04-02": 0.16762347302538116, "2009-04-03": -0.029498617162359686, "2009-04-06": -0.009118806599113571, "2009-04-07": -0.07566432607235363, "2009-04-08": -0.023230194984162345, "2009-04-09": 0.07587754897382792, "2009-04-14": 0.061053007375013735, "2009-04-15": -0.04365083637142675, "2009-04-16": 0.04356825223627836, "2009-04-17": 0.08946312370421428, "2009-04-20": -0.09762777845554238, "2009-04-21": -0.008088919682583517, "2009-04-22": 0.018348687547979248, "2009-04-23": -0.04404396702514357, "2009-04-24": 0.04188455739938046, "2009-04-27": -0.02211039008318949, "2009-04-28": -0.02261057417605261, "2009-04-29": 0.037855086755997025, "2009-04-30": 0.027355478413168433, "2009-05-01": -0.021696219848236664, "2009-05-05": 0.04133052983613994, "2009-05-06": -0.05614704180608854, "2009-05-07": -0.028717866237817913, "2009-05-08": 0.01900717754379655, "2009-05-11": 0.016580389911575732, "2009-05-12": -0.05606514278425112, "2009-05-13": -0.025917799316455215, "2009-05-14": 0.016629501599777052, "2009-05-15": 0.007633458485426514, "2009-05-18": 0.03679668936092062, "2009-05-19": 0.004175476231160324, "2009-05-20": -0.035343108994991934, "2009-05-21": -0.040948384323785336, "2009-05-22": 0.04719124887138859, "2009-05-26": 0.01824026781439425, "2009-05-27": 0.0537407828924632, "2009-05-28": -0.06899993162009821, "2009-05-29": 0.036519587983575574, "2009-06-01": 0.0590674596617935, "2009-06-02": 0.001956994897328812, "2009-06-03": -0.006835752956526164, "2009-06-04": -0.026548917483437462, "2009-06-05": 0.09898988053050006, "2009-06-08": -0.021139730822128833, "2009-06-09": 0.006572848371223072, "2009-06-10": -0.022387951267343276, "2009-06-11": 0.014312931280494157, "2009-06-12": 0.06396971167012055, "2009-06-15": -0.029177441160165296, "2009-06-16": 0.04280469896565231, "2009-06-17": -0.03930112781632833, "2009-06-18": 0.040908893467311636, "2009-06-19": 0.04628839051718181, "2009-06-22": -0.048414100265913196, "2009-06-23": 0.007017846431030872, "2009-06-24": -0.04094073372062501, "2009-06-25": 0.015440324293686913, "2009-06-26": -0.011627939067550108, "2009-06-29": 0.03529408927632227, "2009-06-30": -0.029720345840050566, "2009-07-01": -0.00011429147945607454, "2009-07-02": -0.02671778077108844, "2009-07-03": 0.0019609130332680635, "2009-07-06": 0.0029353093666910635, "2009-07-07": -0.03999992409501574, "2009-07-08": -0.027438825310572068, "2009-07-09": 0.009404168645612776, "2009-07-10": 0.0010353288202329392, "2009-07-13": 0.041364697444263854, "2009-07-14": 0.03078470424401636, "2009-07-15": 0.05780371839389775, "2009-07-16": -0.001821733252296398, "2009-07-17": 0.025547557431378154, "2009-07-20": 0.01690397933815868, "2009-07-21": -0.02012267482097574, "2009-07-22": 0.017857109733814935, "2009-07-23": -0.019298110977914895, "2009-07-24": 0.030411353144226938, "2009-07-27": -0.003472018877822891, "2009-07-28": -0.018292757882560795, "2009-07-29": 0.013309724100940779, "2009-07-30": 0.006129400202665947, "2009-07-31": -0.03655335127962078, "2009-08-03": 0.013911507083360863, "2009-08-04": -0.016393595789992776, "2009-08-05": -0.007246409462300707, "2009-08-06": 0.00036505842596223914, "2009-08-07": -0.018606406951243937, "2009-08-10": 0.020817911472278405, "2009-08-11": -0.01930092863580546, "2009-08-12": -0.019680547889045052, "2009-08-13": -0.006060731847782663, "2009-08-14": 0.002667651395888093, "2009-08-17": -0.026225490851475186, "2009-08-18": 0.013661134152808785, "2009-08-19": -0.03735077000682552, "2009-08-20": -0.012000238771190386, "2009-08-21": 0.052226845915376297, "2009-08-24": 0.027702905847063475, "2009-08-25": 0.04829651471521346, "2009-08-26": -0.027500073290971705, "2009-08-27": -0.012486186751210271, "2009-08-28": 0.0003719745069223901, "2009-09-01": -0.043122713874522156, "2009-09-02": -0.010489449213820112, "2009-09-03": 0.003926144333462389, "2009-09-04": 0.016425521958872036, "2009-09-07": 0.03770689484423695, "2009-09-08": 0.005190767933513918, "2009-09-09": -0.006639580539901324, "2009-09-10": -0.006312644805420375, "2009-09-11": 0.08893891269525156, "2009-09-14": 0.016129049094196324, "2009-09-15": 0.03208367321511574, "2009-09-16": 0.01276175302956939, "2009-09-17": -0.0012921280593922724, "2009-09-18": -0.022646477334316684, "2009-09-21": -0.008275651408347517, "2009-09-22": -0.019693024164144535, "2009-09-23": 0.03370803235699538, "2009-09-24": 0.0019761645710447695, "2009-09-25": -0.01840868964479847, "2009-09-28": 0.017414525576044504, "2009-09-29": 0.014153940931089126, "2009-09-30": 0.07497575166481063, "2009-10-01": -0.023550574207669372, "2009-10-02": -0.02009922455205415, "2009-10-05": 0.005995528764849434, "2009-10-06": 0.027917526279867877, "2009-10-07": 0.014647352082731047, "2009-10-08": 0.023157953942517295, "2009-10-09": 0.003233478403432244, "2009-10-12": 0.03633165004824512, "2009-10-13": -0.015267340539390606, "2009-10-14": 0.03301765171984994, "2009-10-15": -0.0050030099125887295, "2009-10-16": -0.02318422738670345, "2009-10-19": 0.02945388418265238, "2009-10-20": 0.019444348886811014, "2009-10-21": -0.021798457377030234, "2009-10-22": -0.025069392590704398, "2009-10-23": 0.002857152282641051, "2009-10-26": -0.013675301105673388, "2009-10-27": -0.04303872343572712, "2009-10-28": -0.09145793021551374, "2009-10-29": 0.02325591451272291, "2009-10-30": 0.006493427401500718, "2009-11-02": 0.004838732888835073, "2009-11-03": -0.0016049426025168678, "2009-11-04": 0.04501605489960281, "2009-11-05": -0.0006156399974903692, "2009-11-06": 0.014470466908566681, "2009-11-09": 0.03550864948243926, "2009-11-10": 0.014067804473500312, "2009-11-11": 0.03930650437236505, "2009-11-12": 0.015016500917119036, "2009-11-13": 0.008493340479864386, "2009-11-16": 0.008421294006274227, "2009-11-17": -0.04175630073897951, "2009-11-18": 0.017711574594206247, "2009-11-19": -0.02955809714449753, "2009-11-20": -0.023341845832157593, "2009-11-23": 0.0262315266657851, "2009-11-24": -0.013064503959337559, "2009-11-25": -0.015226275582149618, "2009-11-26": -0.03176992456251715, "2009-11-27": 0.014687549070533379, "2009-11-30": -0.019402355939784677, "2009-12-01": 0.030778639149090736, "2009-12-02": -0.006398512514369403, "2009-12-03": -0.004293112066056426, "2009-12-04": 0.012011052587407978, "2009-12-07": -0.010346891937407121, "2009-12-08": -0.026137526042269266, "2009-12-09": -0.03915397260298881, "2009-12-10": 0.038120102188968996, "2009-12-11": -0.01931009817035456, "2009-12-14": 0.02388676079730545, "2009-12-15": -0.0226985755381357, "2009-12-16": 0.01580632509703883, "2009-12-17": -0.03239122292471053, "2009-12-18": -0.02888069644589053, "2009-12-21": 0.017911361142731286, "2009-12-22": 0.006972182970980345, "2009-12-23": 0.007253479136350105, "2009-12-24": -0.001636661767849712, "2009-12-29": 0.015082053598905576, "2009-12-30": -0.017441933344737648, "2009-12-31": 0.014135344646581505, "2010-01-04": 0.012641876267525998, "2010-01-05": 0.04129323256479145, "2010-01-06": -0.013218573236116749, "2010-01-07": 0.01993758087834019, "2010-01-08": -0.023213201889829782, "2010-01-11": -0.018136351185589983, "2010-01-12": -0.006050815778502083, "2010-01-13": -0.00032036797424683794, "2010-01-14": 0.007692262609656275, "2010-01-15": -0.06902030890964883, "2010-01-18": -0.015032628831075368, "2010-01-19": -0.012140047400150511, "2010-01-20": -0.0316011848654133, "2010-01-21": -0.007976608508326821, "2010-01-22": -0.004020544844940299, "2010-01-25": -0.028623879001214214, "2010-01-26": -0.006044885977797065, "2010-01-27": -0.06499398852746696, "2010-01-28": -0.034552906059555744, "2010-01-29": -0.0021053986384604872, "2010-02-01": 0.030379837432969126, "2010-02-02": -0.006961426634223167, "2010-02-03": -0.022268252221117946, "2010-02-04": -0.050611147708980564, "2010-02-05": -0.03598428261896436, "2010-02-08": -0.00967724313042373, "2010-02-09": 0.02280119364220079, "2010-02-10": -0.01273892369098173, "2010-02-11": 0.005069075092670516, "2010-02-12": 0.011004210752435739, "2010-02-15": -0.004535230809991075, "2010-02-16": 0.03781318673434875, "2010-02-17": 0.05180003710846948, "2010-02-18": -0.004591073157407921, "2010-02-19": -0.004612239947785368, "2010-02-22": -0.0021060920499884617, "2010-02-23": -0.02574919125647457, "2010-02-24": -0.010398752266792988, "2010-02-25": -0.03677751034010823, "2010-02-26": 0.021363498134213232, "2010-03-01": 0.002225261521769051, "2010-03-02": 0.04218480709651429, "2010-03-03": 0.01661703772388301, "2010-03-04": 0.0, "2010-03-05": 0.030594848351699344, "2010-03-08": 0.02277385976329649, "2010-03-09": -0.008350231551060405, "2010-03-10": -0.005613352146458084, "2010-03-11": 0.0004032372698024034, "2010-03-12": 0.01692859113946188, "2010-03-15": -0.01902473592700671, "2010-03-16": -0.00484858141849176, "2010-03-17": -0.036540930772707814, "2010-03-18": 0.015592386749057052, "2010-03-19": 0.012862852420431725, "2010-03-22": -0.00532560812533045, "2010-03-23": -0.0004119391181490739, "2010-03-24": 0.016481160442751275, "2010-03-25": 0.019051479253972214, "2010-03-26": -0.0357993496507919, "2010-03-29": 0.020626846640356078, "2010-03-30": -0.019805827893452643, "2010-03-31": -0.004123902410120839, "2010-04-01": 0.012008227095398727, "2010-04-06": 0.03109676534463035, "2010-04-07": 0.06111109397300196, "2010-04-08": -0.01570674438166486, "2010-04-09": 0.0037995150009590972, "2010-04-12": 0.0034066744581258135, "2010-04-13": 0.027159171302201024, "2010-04-14": -0.003304897841163168, "2010-04-15": -0.0003687500234246244, "2010-04-16": -0.016955499358893067, "2010-04-19": -0.010123551562521982, "2010-04-20": 0.011363655976210252, "2010-04-21": -0.016853961345745905, "2010-04-22": -0.02704767868440161, "2010-04-23": 0.01605304912957739, "2010-04-26": 0.01734131378239745, "2010-04-27": -0.06212119569711516, "2010-04-28": -0.0359450022773975, "2010-04-29": 0.031839066262822735, "2010-04-30": -0.012180475237264399, "2010-05-04": -0.02959286385406268, "2010-05-05": -0.03854314199171549, "2010-05-06": -0.02378830796093412, "2010-05-07": -0.05189546406605905, "2010-05-10": 0.0861493399855704, "2010-05-11": -0.02804555006542231, "2010-05-12": 0.027051374972116182, "2010-05-13": 0.00834086103053644, "2010-05-14": -0.03569876407642658, "2010-05-17": -0.08848768997567502, "2010-05-18": 0.09113423216355132, "2010-05-19": -0.022696433027728724, "2010-05-20": 0.0004646206668259545, "2010-05-21": -0.005571133083091984, "2010-05-24": 0.009804163500133134, "2010-05-25": -0.03143804979702336, "2010-05-26": 0.027684913331938565, "2010-05-27": 0.10682782513818911, "2010-05-28": -0.023080194447171798, "2010-06-01": 0.016323222304434726, "2010-06-02": 0.004648897545283415, "2010-06-03": 0.022718006912509914, "2010-06-04": -0.01933385804063492, "2010-06-07": -0.02055346430428362, "2010-06-08": 0.006852271045715286, "2010-06-09": 0.013185460501343949, "2010-06-10": 0.019311880530070047, "2010-06-11": 0.014827182654878257, "2010-06-14": -0.006087979652864894, "2010-06-15": 0.0024503022805444363, "2010-06-16": -0.02566217261219106, "2010-06-17": 0.02132118295123453, "2010-06-18": 0.016782685609257886, "2010-06-21": 0.024154451243963537, "2010-06-22": 0.01533002688359364, "2010-06-23": -0.006968515115482132, "2010-06-24": -0.009746546275725021, "2010-06-25": -0.02913402416652333, "2010-06-28": 0.012571186260593059, "2010-06-29": -0.0344412169278534, "2010-06-30": -0.002680034829660838, "2010-07-01": -0.03269149703180496, "2010-07-02": -0.006944348322490024, "2010-07-05": -0.008391512191171513, "2010-07-06": 0.025858092226934914, "2010-07-07": -0.005041119864571453, "2010-07-08": 0.005987748356748979, "2010-07-09": 0.005952236090426277, "2010-07-12": -0.017751244117638065, "2010-07-13": 0.024096252606867097, "2010-07-14": -0.00859727896542306, "2010-07-15": -0.01643080071333136, "2010-07-16": -0.02830635195030018, "2010-07-19": 0.009551255145568316, "2010-07-20": -0.012298992482493665, "2010-07-21": 0.03065136929530876, "2010-07-22": 0.01254646118021907, "2010-07-23": -0.006883931311692959, "2010-07-26": 0.03789280032179976, "2010-07-27": 0.0040072676004170305, "2010-07-28": -0.004434826059910857, "2010-07-29": -0.0048997790908242855, "2010-07-30": -0.027305301948106764, "2010-08-02": 0.027611597582066993, "2010-08-03": 0.019256842671970142, "2010-08-04": -0.00746925510410279, "2010-08-05": 0.012394876785686071, "2010-08-06": -0.009619963772841689, "2010-08-09": 0.00044159444937541537, "2010-08-10": -0.01632818719657836, "2010-08-11": -0.04710622456269875, "2010-08-12": -0.009886986866496583, "2010-08-13": 0.004279418384848466, "2010-08-16": -0.003787870533258575, "2010-08-17": 0.030893525875705263, "2010-08-18": -0.015214261537976781, "2010-08-19": -0.018258441402286496, "2010-08-20": -0.01573684143359244, "2010-08-23": 0.014050423955087599, "2010-08-24": -0.013377940685619927, "2010-08-25": 0.0004842918748140246, "2010-08-26": 0.00048404846690019987, "2010-08-27": 0.0, "2010-08-31": 0.007256855020983721, "2010-09-01": 0.03986533969895745, "2010-09-02": 0.05773704199676977, "2010-09-03": 0.01266366450442713, "2010-09-06": 0.015092705781212468, "2010-09-07": -0.041206548153444045, "2010-09-08": 0.018165769666234288, "2010-09-09": 0.008268367628063933, "2010-09-10": 0.009926223397243916, "2010-09-13": 0.003846292272435159, "2010-09-14": -0.012771394372205203, "2010-09-15": 0.01595518452505118, "2010-09-16": 0.0, "2010-09-17": -0.0441426695670567, "2010-09-20": 0.009324961465329018, "2010-09-21": -0.011878503721129419, "2010-09-22": -0.012911826545078608, "2010-09-23": -0.007668031717832591, "2010-09-24": 0.008181791248965009, "2010-09-27": -0.011271294285759459, "2010-09-28": -0.0237118728972201, "2010-09-29": -0.004203733203352766, "2010-09-30": 0.027673524192117993, "2010-10-01": -0.013235940678680502, "2010-10-04": 0.0064754284562171804, "2010-10-05": 0.04365827158731639, "2010-10-06": 0.046675209575754995, "2010-10-07": 0.05090482146326614, "2010-10-08": 0.002401819245390069, "2010-10-11": 0.026357952791570938, "2010-10-12": -0.0007783671176608831, "2010-10-13": 0.04750793466864911, "2010-10-14": -0.0197027243620701, "2010-10-15": 0.0011376644182736761, "2010-10-18": 0.022348304210782377, "2010-10-19": -0.03742106183465843, "2010-10-20": 0.0065434477997676765, "2010-10-21": 0.006883292915040418, "2010-10-22": -0.023926868590796402, "2010-10-25": 0.014396914024124019, "2010-10-26": -0.009206246323846812, "2010-10-27": -0.01742157595059357, "2010-10-28": 0.018124555606528592, "2010-10-29": 0.009288077320923183, "2010-11-01": -0.007668885507162937, "2010-11-02": -0.001932043332901312, "2010-11-03": -0.017808682326553416, "2010-11-04": 0.14623552838120069, "2010-11-05": -0.0027508791651413844, "2010-11-08": 0.010689769023721762, "2010-11-09": 0.02251782144426695, "2010-11-10": -0.027360601648115046, "2010-11-11": 0.005831868017200037, "2010-11-12": -0.011937232522724939, "2010-11-15": 0.01380702185877114, "2010-11-16": -0.04358164939297238, "2010-11-17": -0.0021359999632660776, "2010-11-18": 0.013913729396918484, "2010-11-19": 0.03835311712167133, "2010-11-22": -0.022365026309198677, "2010-11-23": -0.04852672138582448, "2010-11-24": 0.043225500639126, "2010-11-25": -0.0028550830654575643, "2010-11-26": -0.03471726287646015, "2010-11-29": -0.03337043674794715, "2010-11-30": 0.0161103864016654, "2010-12-01": 0.02906772835217164, "2010-12-02": 0.05906077675063237, "2010-12-03": -0.03325262130124629, "2010-12-06": -0.008240728591518809, "2010-12-07": 0.02420507406604888, "2010-12-08": -0.018694689895624728, "2010-12-09": 0.021207844525035657, "2010-12-10": 0.0031676913241207583, "2010-12-13": 0.0045613756885205525, "2010-12-14": 0.0038422959653687805, "2010-12-15": 0.01670146889657964, "2010-12-16": -0.016084882309162496, "2010-12-17": 0.022608573492222117, "2010-12-20": 0.008843588276667536, "2010-12-21": -0.0006743974488719884, "2010-12-22": 0.016869102525852053, "2010-12-23": -0.007962802707057404, "2010-12-24": -0.005016601502046525, "2010-12-29": 0.005714251881526522, "2010-12-30": 0.004679030799095374, "2010-12-31": -0.015302649824140646, "2011-01-04": 0.03310793127720846, "2011-01-05": 0.015369807940093017, "2011-01-06": -0.026409233489928297, "2011-01-07": 0.02613321276221714, "2011-01-10": -0.016118636117836926, "2011-01-11": 0.011467649307709937, "2011-01-12": -0.02008412471394283, "2011-01-13": 0.009917488250618778, "2011-01-14": 0.009165252002391044, "2011-01-17": -0.01459618435070964, "2011-01-18": 0.013166487378424518, "2011-01-19": -0.021117584991277027, "2011-01-20": -0.023896231913018262, "2011-01-21": -0.04114270708700252, "2011-01-24": 0.01028372915734832, "2011-01-25": -0.024569989506307066, "2011-01-26": 0.020870702852806344, "2011-01-27": 0.02890381427646993, "2011-01-28": 0.015758640663406487, "2011-01-31": -0.0077568435155210835, "2011-02-01": 0.029571463526124164, "2011-02-02": 0.0016508819570451028, "2011-02-03": -0.012524743064337818, "2011-02-04": 0.012683601919510012, "2011-02-07": 0.02504939635140624, "2011-02-08": -0.006430919083830644, "2011-02-09": -0.01423922661628274, "2011-02-10": 0.009192146705349957, "2011-02-11": 0.005204919884619352, "2011-02-14": -0.002912607546165291, "2011-02-15": -0.010061526131242449, "2011-02-16": 0.0016393362296081015, "2011-02-17": 0.011456477328853687, "2011-02-18": -0.015533812885952236, "2011-02-21": -0.03122946205562238, "2011-02-22": -0.018663226748648953, "2011-02-23": -0.009336149687021789, "2011-02-24": -0.019546048763523838, "2011-02-25": 0.027767837619309566, "2011-02-28": -0.00484929487359731, "2011-03-01": -0.015315117015083368, "2011-03-02": 0.0017674006060133252, "2011-03-03": -0.0031756058214340577, "2011-03-04": -0.0159292163274547, "2011-03-07": 0.00899295824695856, "2011-03-08": 0.013903466847121182, "2011-03-09": -0.012658359750968073, "2011-03-10": -0.031338771448485514, "2011-03-11": -0.020220476877229165, "2011-03-14": -0.007880294696607004, "2011-03-15": -0.02193635240083902, "2011-03-16": -0.03518940077868482, "2011-03-17": -0.021242485287902513, "2011-03-18": 0.0036854860635970876, "2011-03-21": 0.001632090301444622, "2011-03-22": -0.010997791465047202, "2011-03-23": 0.01935727116105368, "2011-03-24": 0.022222217820052625, "2011-03-25": -0.011857643224891357, "2011-03-28": -0.02199999430535382, "2011-03-29": 0.006952701020242369, "2011-03-30": 0.004468002239702784, "2011-03-31": -0.005660996141909402, "2011-04-01": 0.029280148926123406, "2011-04-04": -0.03713960027782992, "2011-04-05": 0.019696471890013445, "2011-04-06": -0.004024125549385027, "2011-04-07": -0.022626248939517368, "2011-04-08": 0.00124017589783465, "2011-04-11": 0.004128679262139778, "2011-04-12": -0.013568888387526679, "2011-04-13": 0.01250502077129334, "2011-04-14": -0.010292245561745461, "2011-04-15": 0.04242940774061532, "2011-04-18": -0.04349559438259831, "2011-04-19": -0.0037546750200555534, "2011-04-20": 0.016750557127239718, "2011-04-21": 0.0061775490428763735, "2011-04-26": 0.015145458000473289, "2011-04-27": 0.003225790933363948, "2011-04-28": 0.0036172365189122146, "2011-05-03": 0.03324015446817663, "2011-05-04": 0.002712946738258726, "2011-05-05": -0.021260033013773993, "2011-05-06": -0.02290689079706254, "2011-05-09": -0.005658707956999964, "2011-05-10": 0.010975327613638619, "2011-05-11": 0.01608388253763593, "2011-05-12": -0.027701121429734576, "2011-05-13": 0.0, "2011-05-16": -0.00040665859380295544, "2011-05-17": -0.006921901334772995, "2011-05-18": 0.007379807667609706, "2011-05-19": 0.019536374614579577, "2011-05-20": -0.004391304909787452, "2011-05-23": -0.0445068000425769, "2011-05-24": -0.0071337087051632775, "2011-05-25": 0.01056641178136486, "2011-05-26": 0.02467550111912198, "2011-05-27": 0.03387771204138201, "2011-05-31": 0.014212320832176273, "2011-06-01": -0.010120614522364013, "2011-06-02": -0.014549667541261857, "2011-06-03": -0.000798305342587402, "2011-06-06": -0.0023958214045851634, "2011-06-07": -0.004804037165532904, "2011-06-08": -0.01810115661333711, "2011-06-09": -0.006554769422564166, "2011-06-10": -0.02268040528433901, "2011-06-13": 0.002109694215207014, "2011-06-14": 0.01136835734239261, "2011-06-15": -0.031640357384434825, "2011-06-16": -0.014187487328355397, "2011-06-17": 0.0021805945379698155, "2011-06-20": -0.036118466552420236, "2011-06-21": 0.04108368063728407, "2011-06-22": 0.04856904531910522, "2011-06-23": -0.019851123520258973, "2011-06-24": -0.006751366278796911, "2011-06-27": -0.03313485870491062, "2011-06-28": 0.022846917176222226, "2011-06-29": 0.038113042173315126, "2011-06-30": 0.014120708612384458, "2011-07-01": 0.022363033952236933, "2011-07-04": 0.002888982277513108, "2011-07-05": 0.017695570196344157, "2011-07-06": -0.0016177321662830257, "2011-07-07": 0.03564202248509707, "2011-07-08": 0.01525230040755976, "2011-07-11": -0.029661022280267568, "2011-07-12": -0.02183419364481154, "2011-07-13": -0.002435187978474529, "2011-07-14": -0.021155051315256856, "2011-07-15": 0.0024936720358006426, "2011-07-18": -0.042288838498443004, "2011-07-19": 0.028138858087911833, "2011-07-20": 0.015578919730224738, "2011-07-21": 0.008291893715488774, "2011-07-22": -0.0004111700192145351, "2011-07-25": -0.012340680118577474, "2011-07-26": -0.02582259861579206, "2011-07-27": -0.02351434628491811, "2011-07-28": -0.006567530262251875, "2011-07-29": -0.01806936281847671, "2011-08-01": -0.018851179106342486, "2011-08-02": -0.02561756940324522, "2011-08-03": -0.014084352726992377, "2011-08-04": -0.049047857213078805, "2011-08-05": -0.03705532448169291, "2011-08-08": -0.0743631451399911, "2011-08-09": 0.019101147970081778, "2011-08-10": 0.031973369058711176, "2011-08-11": 0.029380377717844075, "2011-08-12": 0.030098779827911315, "2011-08-15": -0.003022689803449663, "2011-08-16": 0.00808492371766567, "2011-08-17": -0.0015037692196199215, "2011-08-18": -0.0682731216826945, "2011-08-19": 0.01724137278541482, "2011-08-22": 0.020656636533284534, "2011-08-23": 0.017644030614140327, "2011-08-24": 0.10198896558112147, "2011-08-25": -0.04627497708621109, "2011-08-26": 0.00727800052306482, "2011-08-30": 0.04720612750954123, "2011-08-31": 0.03035898884993582, "2011-09-01": -0.008035946789079151, "2011-09-02": -0.014401191986508133, "2011-09-05": -0.03287662865375418, "2011-09-06": -0.013220341059963503, "2011-09-07": 0.054545703393370726, "2011-09-08": 0.03947346207011537, "2011-09-09": -0.05630697662483031, "2011-09-12": 0.05041616082154543, "2011-09-13": 0.004403411159060511, "2011-09-14": 0.014028757801823666, "2011-09-15": 0.038045893905439776, "2011-09-16": -0.012078403911369495, "2011-09-19": -0.0311972520751711, "2011-09-20": 0.018276768028379298, "2011-09-21": -0.011965925645234465, "2011-09-22": -0.04411772189299357, "2011-09-23": 0.047059112844693995, "2011-09-26": -0.01642173781477929, "2011-09-27": 0.05272395434579913, "2011-09-28": -0.24874787748657068, "2011-09-29": -0.02222234427430292, "2011-09-30": -0.042613390589759104, "2011-10-03": -0.04569734324305763, "2011-10-04": -0.010572068633742604, "2011-10-05": 0.034569315062294326, "2011-10-06": -0.012150536988579819, "2011-10-07": 0.0282899507636305, "2011-10-10": 0.022129309289162347, "2011-10-11": -0.02750159451825618, "2011-10-12": -0.05956663471900092, "2011-10-13": -0.04030710552267436, "2011-10-14": 0.05066679353492587, "2011-10-17": 0.020304557103064003, "2011-10-18": -0.015547337692626617, "2011-10-19": -0.004421897580071943, "2011-10-20": -0.04822346518105858, "2011-10-21": 0.03666660875804939, "2011-10-24": 0.007074208452310993, "2011-10-25": -0.003831699716239645, "2011-10-26": -0.004487092770058876, "2011-10-27": 0.03605916206462978, "2011-10-28": -0.04661286980747925, "2011-10-31": -0.022816093589514752, "2011-11-01": -0.09272854129075636, "2011-11-02": 0.038970786780948785, "2011-11-03": 0.024061932798786767, "2011-11-04": -0.03248079494120637, "2011-11-07": 0.009285846468696901, "2011-11-08": 0.031139276693604723, "2011-11-09": -0.017844767299793007, "2011-11-10": 0.0013976739808987393, "2011-11-11": 0.04117210703400631, "2011-11-14": -0.02077732022538281, "2011-11-15": -0.01163607772187869, "2011-11-16": -0.008310110555465267, "2011-11-17": -0.018156302829508086, "2011-11-18": 0.001422513427195904, "2011-11-21": -0.026988838582827634, "2011-11-22": 0.0029195949176288316, "2011-11-23": -0.059718275133209375, "2011-11-24": 0.017799421853487818, "2011-11-25": -0.004769580959217312, "2011-11-28": 0.05670919840669075, "2011-11-29": 0.04308385830315098, "2011-11-30": 0.02826097775087244, "2011-12-01": -0.01620865035778385, "2011-12-02": 0.020057200284113286, "2011-12-05": 0.02808989168337339, "2011-12-06": -0.02185777049657689, "2011-12-07": -0.02374300522491768, "2011-12-08": -0.0329043395225892, "2011-12-09": -0.0029583355963545, "2011-12-12": -0.034124738025440915, "2011-12-13": 0.03148990458698675, "2011-12-14": -0.03201792477812615, "2011-12-15": 0.026923358537976005, "2011-12-16": -0.044194780656903965, "2011-12-19": -0.0297806859122004, "2011-12-20": 0.0355411344232095, "2011-12-21": -0.01794058214114813, "2011-12-22": -0.0039714275516035125, "2011-12-23": 0.019936125828326823, "2011-12-28": -0.010946033610430117, "2011-12-29": 0.012648278107616262, "2011-12-30": -0.01873540012937036, "2012-01-03": 0.02068417590672289, "2012-01-04": -0.009353195750395504, "2012-01-05": -0.03225795536494125, "2012-01-06": -0.08373980777249124, "2012-01-09": -0.047914812625345804, "2012-01-10": 0.009319605966070954, "2012-01-11": -0.03508769643848497, "2012-01-12": 0.02105258690444467, "2012-01-13": 0.002811636994862754, "2012-01-16": 0.03084124532340704, "2012-01-17": -0.029011806267443263, "2012-01-18": 0.0681608430819558, "2012-01-19": 0.044580123328957555, "2012-01-20": 0.01422587903740391, "2012-01-23": -0.01732682897944393, "2012-01-24": -0.000839607101001949, "2012-01-25": -0.008403211037803837, "2012-01-26": 0.002542443763938973, "2012-01-27": 0.0008451853045028379, "2012-01-30": -0.026182378673384687, "2012-01-31": 0.0034691569091545027, "2012-02-01": 0.05185825059156435, "2012-02-02": 0.041906379550160855, "2012-02-03": 0.07807572731189305, "2012-02-06": 0.0021944512161904406, "2012-02-07": -0.013868445609360625, "2012-02-08": 0.014063484276122251, "2012-02-09": 0.003649667751123964, "2012-02-10": -0.05236367152424404, "2012-02-13": 0.006907201899261306, "2012-02-14": 0.008384180021534293, "2012-02-15": 0.014361125259521934, "2012-02-16": -0.016393322981417047, "2012-02-17": 0.011363814106017944, "2012-02-20": 0.01947537022450474, "2012-02-21": -0.009551520990205842, "2012-02-22": -0.022997256152669676, "2012-02-23": -0.02050113921367369, "2012-02-24": 0.04186046566142143, "2012-02-27": -0.0059522643637551775, "2012-02-28": 0.0022453704277123343, "2012-02-29": -0.02240464242678286, "2012-03-01": 0.1268142886546979, "2012-03-02": 0.03389826570418908, "2012-03-05": -0.02688515400250202, "2012-03-06": -0.017520051655440017, "2012-03-07": 0.002057658712516508, "2012-03-08": -0.02943202864037231, "2012-03-09": -0.014104377802849233, "2012-03-12": -0.01645221182006129, "2012-03-13": 0.014545731067596046, "2012-03-14": 0.020071477834392892, "2012-03-15": 0.004919270911791784, "2012-03-16": 0.013986019243807934, "2012-03-19": -0.006896507937640739, "2012-03-20": -0.020138856968596075, "2012-03-21": -0.018426662711309882, "2012-03-22": -0.0216606929079749, "2012-03-23": -0.007380311973021136, "2012-03-26": -0.007434698842656129, "2012-03-27": 0.012733836384616781, "2012-03-28": -0.01405318443331205, "2012-03-29": -0.024756288829330786, "2012-03-30": 0.03692336344859237, "2012-04-02": -0.01112776851065056, "2012-04-03": -0.024006021496497554, "2012-04-04": -0.056110596796653756, "2012-04-05": -0.025244246635046874, "2012-04-10": -0.05096071723223827, "2012-04-11": 0.01848579372406589, "2012-04-12": -0.0025928689700067675, "2012-04-13": -0.04679375560931753, "2012-04-16": -0.04454565295973656, "2012-04-17": 0.022835508820365114, "2012-04-18": -0.07348828200640378, "2012-04-19": -0.06224910108056214, "2012-04-20": 0.024625351455734856, "2012-04-23": -0.032915190846593, "2012-04-24": 0.04808201133473311, "2012-04-25": 0.02785560475280313, "2012-04-26": -0.01523095376334882, "2012-04-27": 0.14133334177441093, "2012-04-30": -0.032710406260352154, "2012-05-01": -0.05507234988816323, "2012-05-02": -0.031186164950861683, "2012-05-03": -0.013720463433206098, "2012-05-04": -0.050294108963474415, "2012-05-08": -0.07098590714316189, "2012-05-09": 0.02365053134385975, "2012-05-10": 0.018365255679249293, "2012-05-11": 0.02268750217774529, "2012-05-14": -0.05574529884869783, "2012-05-15": -0.037951805750330636, "2012-05-16": 0.025673336661510726, "2012-05-17": -0.04090350641886631, "2012-05-18": -0.04137487583365185, "2012-05-21": 0.046480660291876585, "2012-05-22": -0.014593878663065163, "2012-05-23": -0.05859631384514763, "2012-05-24": -0.0054721187463592225, "2012-05-25": 0.007565391935032251, "2012-05-29": 0.01365195561017618, "2012-05-30": -0.03434338066100617, "2012-05-31": 0.01673633905008276, "2012-06-01": 0.035665299361570035, "2012-06-06": 0.07086076610312908, "2012-06-07": -0.007421133971682536, "2012-06-08": -0.0049844326304347986, "2012-06-11": -0.03944896521523056, "2012-06-12": -0.028683013369641297, "2012-06-13": -0.03355708556299142, "2012-06-14": -0.039583368840531374, "2012-06-15": 0.05278376879020863, "2012-06-18": 0.021977972098396803, "2012-06-19": -0.017472960894806433, "2012-06-20": 0.06497926510917673, "2012-06-21": -0.020552381888431226, "2012-06-22": 0.003278718321611196, "2012-06-25": -0.021568491525770006, "2012-06-26": -0.038076123315148425, "2012-06-27": 0.012500004177317559, "2012-06-28": -0.006858793507445005, "2012-06-29": 0.05179571231168323, "2012-07-02": -0.022324443480890355, "2012-07-03": -0.04835466155328616, "2012-07-04": -0.04657725104154353, "2012-07-05": -0.06365658482039771, "2012-07-06": 0.006324223403565199, "2012-07-09": 0.010997403440907716, "2012-07-10": 0.017094168150938227, "2012-07-11": -0.01909867099730944, "2012-07-12": 0.008567041202581782, "2012-07-13": 0.05096512715467716, "2012-07-16": 0.0007349350224377105, "2012-07-17": 0.007342115612445799, "2012-07-18": 0.008017574280010376, "2012-07-19": 0.01879963269471685, "2012-07-20": -0.014194455335711287, "2012-07-23": -0.0043195870321525165, "2012-07-24": 0.041214789036653876, "2012-07-25": 0.09374998677182811, "2012-07-26": 0.03492061985374861, "2012-07-27": 0.0, "2012-07-30": 0.008588907668878543, "2012-07-31": -0.03102177392177785, "2012-08-01": 0.029503833573255367, "2012-08-02": -0.017073231803553024, "2012-08-03": 0.01364776342446472, "2012-08-06": 0.03671972330486306, "2012-08-07": 0.005903165115923148, "2012-08-08": -0.0011737534031139862, "2012-08-09": -0.01468847098349757, "2012-08-10": 0.0011925935464236481, "2012-08-13": 0.004169086256648136, "2012-08-14": 0.020759266265216514, "2012-08-15": -0.0066307543139442204, "2012-08-16": 0.008186337362363627, "2012-08-17": 0.014365935761453619, "2012-08-20": -0.003078768560103362, "2012-08-21": -0.00741197807817251, "2012-08-22": -0.04418176842676569, "2012-08-23": 0.029297125281847247, "2012-08-24": -0.04174591367420466, "2012-08-28": -0.02838289132150351, "2012-08-29": -0.009510665165945453, "2012-08-30": -0.019204545180476762, "2012-08-31": -0.002797041329609451, "2012-09-03": 0.02805047625814483, "2012-09-04": 0.006821314514635413, "2012-09-05": -0.012195142633417144, "2012-09-06": 0.04938253512619517, "2012-09-07": 0.05424858536694832, "2012-09-10": 0.04029752056954572, "2012-09-11": -0.01609070082929509, "2012-09-12": 0.009085527975414287, "2012-09-13": -0.013205519671325994, "2012-09-14": 0.07664250532273464, "2012-09-17": 0.012429350622911395, "2012-09-18": -0.014508822316973258, "2012-09-19": 0.004529867329342574, "2012-09-20": -0.009582864816106373, "2012-09-21": 0.007399040338477381, "2012-09-24": -0.017514223484758507, "2012-09-25": -0.00805051642851684, "2012-09-26": -0.023768124915231725, "2012-09-27": 0.0023752304994999474, "2012-09-28": -0.024288986949887237, "2012-10-01": 0.03217966978527298, "2012-10-02": -0.005294197509255416, "2012-10-03": 0.015375617470915204, "2012-10-04": -0.004076989841100387, "2012-10-05": 0.05263161104966074, "2012-10-08": -0.020555511913127322, "2012-10-09": 0.020419540405424152, "2012-10-10": 0.038354736814154355, "2012-10-11": -0.0487148363803005, "2012-10-12": 0.012942830869236088, "2012-10-15": 0.001111146337770652, "2012-10-16": 0.028302121589987017, "2012-10-17": -0.0010794290778669557, "2012-10-18": -0.09886545682794767, "2012-10-19": -0.028776974175753978, "2012-10-22": -0.0006174321675850303, "2012-10-23": -0.03705985357789465, "2012-10-24": -0.011545826133475434, "2012-10-25": 0.03893568915357415, "2012-10-26": 0.02248602452739612, "2012-10-29": -0.041539273692890344, "2012-10-30": 0.04716368480902711, "2012-10-31": -0.04503945800758791, "2012-11-01": 0.04716368480902711, "2012-11-02": 0.02860591283180769, "2012-11-05": -0.007100323858335145, "2012-11-06": 0.03933264270994874, "2012-11-07": -0.010321203283915281, "2012-11-08": -0.0011588541646433415, "2012-11-09": -0.0603246955632305, "2012-11-12": 0.0067898959364207645, "2012-11-13": -0.00980986020062613, "2012-11-14": -0.031578858604240256, "2012-11-15": -0.05690537641149129, "2012-11-16": -0.026440664364725586, "2012-11-19": 0.022980355159432753, "2012-11-20": 0.012253358287517946, "2012-11-21": -0.017484679604891196, "2012-11-22": 0.06091686899009874, "2012-11-23": 0.0012902865600481483, "2012-11-26": -0.009664775000420511, "2012-11-27": -0.04684458401909575, "2012-11-28": 0.008873675357751187, "2012-11-29": 0.03585927603546102, "2012-11-30": 0.003265787029818057, "2012-12-03": 0.0026043268773630057, "2012-12-04": -0.019480495731920233, "2012-12-05": 0.005297943505416791, "2012-12-06": 0.007905054461343264, "2012-12-07": -0.03725499182318415, "2012-12-10": 0.04955890287317666, "2012-12-11": -0.01293653766990388, "2012-12-12": 0.017037822665345814, "2012-12-13": 0.04510342900061137, "2012-12-14": -0.006781798509617132, "2012-12-17": 0.01800117861116335, "2012-12-18": 0.018292441609898402, "2012-12-19": 0.0, "2012-12-20": 0.03592848125968984, "2012-12-21": -0.024855531575383005, "2012-12-24": 0.0065203023499236235, "2012-12-27": -0.016490123330450968, "2012-12-28": -0.019161339185073567, "2012-12-31": 0.01037838145053227, "2013-01-02": 0.018731042166519662, "2013-01-03": 0.024910988564257552, "2013-01-04": -0.009259259099579475, "2013-01-07": 0.023364616124101234, "2013-01-08": 0.022260193149846508, "2013-01-09": 0.01060851777903471, "2013-01-10": 0.006629830233618295, "2013-01-11": 0.018660912816248265, "2013-01-14": 0.0037715423898079248, "2013-01-15": -0.0032205856945562994, "2013-01-16": 0.0064618543788301785, "2013-01-17": 0.02782241902157745, "2013-01-18": 0.0036440974747093957, "2013-01-21": 0.009336023008145178, "2013-01-22": -0.009249667895851799, "2013-01-23": -0.033195248232922414, "2013-01-24": 0.019313310724798693, "2013-01-25": -0.007894422950468716, "2013-01-28": -0.010610255110751088, "2013-01-29": -0.012868576255753328, "2013-01-30": -0.0244431833765395, "2013-01-31": -0.01503358259717058, "2013-02-01": 0.023176946159073175, "2013-02-04": -0.017679558265743633, "2013-02-05": 0.020809786982264766, "2013-02-06": 0.047933995945281804, "2013-02-07": 0.01156687190504746, "2013-02-08": 0.017671425238942495, "2013-02-11": 0.029622331858238704, "2013-02-12": 0.04265857716426513, "2013-02-13": 0.03330147757145974, "2013-02-14": 0.023020383733613814, "2013-02-15": -0.03150321949652557, "2013-02-18": 0.018587464065923376, "2013-02-19": -0.005474502865920661, "2013-02-20": -0.022018456401825315, "2013-02-21": 