{"2000-01-05": [0.14709094718249618, 0.2080180124077907, 2], "2000-01-07": [0.09806063145499745, 0.1698459959023424, 3], "2000-01-10": [0.07354547359124809, 0.14709094718249618, 4], "2000-01-14": [0.20002012474943837, 0.3101709157629266, 5], "2000-01-18": [0.15736734163088292, 0.29644621271779, 6], "2000-01-25": [0.06712978376850826, 0.3608785790332055, 7], "2000-01-27": [-0.09427636842677607, 0.5657244491993608, 8], "2000-01-31": [-0.030648042616291886, 0.5625617370370886, 9], "2000-02-01": [-0.13429914523067782, 0.6234959912917116, 10], "2000-02-02": [-0.0505264886126175, 0.6535051369396209, 11], "2000-02-03": [0.18435311778416213, 1.0248247004958606, 12], "2000-02-08": [0.1742067973008305, 0.9818766977082461, 13], "2000-02-15": [0.16176345463648548, 0.9445048555228839, 14], "2000-02-16": [0.15662193486263307, 0.9103654636916343, 15], "2000-02-23": [0.2961244348001038, 1.0415802507750023, 16], "2000-02-25": [0.289199356178632, 1.008909854380343, 17], "2000-03-01": [0.16664979438718958, 1.1083112327640448, 18], "2000-03-02": [0.1426168241814332, 1.0821672703440417, 19], "2000-03-13": [0.11100604450169713, 1.0627486643261883, 20], "2000-03-15": [0.14947653131059183, 1.050734282686314, 21], "2000-03-16": [0.009634190798910322, 1.217250361784358, 22], "2000-03-24": [0.007188672133208687, 1.189321683540828, 23], "2000-03-30": [-0.014550483803302079, 1.1680448854156062, 24], "2000-04-03": [-0.01816743517259493, 1.1435947171870027, 25], "2000-04-05": [-0.020329858348170794, 1.1205436626988914, 26], "2000-04-06": [-0.00963947833351785, 1.1001866979013548, 27], "2000-04-07": [-0.011768422977021051, 1.0796794195778563, 28], "2000-04-11": [0.0014635924571896558, 1.062615986028445, 29], "2000-04-14": [0.01715268368561244, 1.0476644787842, 30], "2000-04-17": [0.1118914648189496, 1.157260861231744, 31], "2000-04-18": [0.14761821070276274, 1.1562421082086758, 32], "2000-04-19": [0.14314493159055783, 1.138322518490925, 33], "2000-04-28": [0.13549411483330065, 1.1218299074605378, 34], "2000-05-02": [0.12881922630274412, 1.1059145361739915, 35], "2000-05-03": [0.12741121982589887, 1.0900340048762924, 36], "2000-05-09": [0.13548354747076471, 1.075909060430295, 37], "2000-05-10": [0.1466266329739337, 1.0634908319131946, 38], "2000-05-11": [0.13615308679797078, 1.05144061542455, 39], "2000-05-16": [0.1339019679682084, 1.0379707190571819, 40], "2000-05-17": [0.13237515842311334, 1.0249605896435472, 41], "2000-05-19": [0.12922336893684874, 1.0125899463430144, 42], "2000-05-22": [0.1262181743104104, 1.0006567452302124, 43], "2000-05-25": [0.16880420524072118, 1.0285060198357503, 44], "2000-05-30": [0.16211324197773436, 1.0177415037388573, 45], "2000-06-01": [0.15399503484349594, 1.007874835210534, 46], "2000-06-02": [0.15071854474044286, 0.997112523226208, 47], "2000-06-29": [0.1467085404108859, 0.986839059145183, 48], "2000-07-03": [0.28735061702501336, 1.386647846899115, 49], "2000-07-07": [0.27811700044124454, 1.37397764788251, 50], "2000-07-21": [0.27266372592278876, 1.360725884847788, 51], "2000-09-01": [0.3004743128701342, 1.3621629262494774, 52], "2000-09-08": [0.31947904128313176, 1.3560781332360485, 53], "2000-09-20": [0.30925668852181226, 1.3453228549200054, 54], "2000-09-21": [0.33181737710052295, 1.3432688461070708, 55], "2000-10-09": [0.32760673539954355, 1.3313742134191693, 56], "2000-10-11": [0.32964146300764824, 1.3195228205433167, 57], "2000-10-19": [0.3231647425021685, 1.3088266227899814, 58], "2000-10-24": [0.3057327426074063, 1.3043852117497983, 59], "2000-11-13": [0.25004604362332483, 1.3633208158414147, 60], "2000-11-14": [0.2737795420072833, 1.364560833553937, 61], "2000-11-20": [0.26481553996848095, 1.3551690500793756, 62], "2000-11-22": [0.2792186183970723, 1.3490484514478798, 63], "2000-11-24": [0.3025187132056399, 1.3512176589887712, 64], "2000-11-28": [0.28133256708797444, 1.3514572273968426, 65], "2000-11-30": [0.28437797653709546, 1.341249317064563, 66], "2000-12-04": [0.2832613651809334, 1.3310809342143564, 67], "2000-12-05": [0.2810845151473152, 1.3212320987334518, 68], "2000-12-11": [0.28256541331144663, 1.31153886471679, 69], "2000-12-14": [0.27852876454985454, 1.3024382249921662, 70], "2000-12-15": [0.28077609576230483, 1.2932402756393189, 71], "2000-12-20": [0.27576808365175615, 1.2848035891147207, 72], "2000-12-27": [0.27199043867022527, 1.2762583383490287, 73], "2001-01-02": [0.2866112081175343, 1.2737116171986604, 74], "2001-01-04": [0.2903721186282583, 1.2654953917399574, 75], "2001-01-16": [0.2836821493524246, 1.2583826806866618, 76], "2001-01-17": [0.2812167804585456, 1.250263611893659, 77], "2001-02-09": [0.25973895463675245, 1.2565188012367388, 78], "2001-02-15": [0.2643594252532454, 1.2491134924362393, 79], "2001-02-16": [0.26484415717500215, 1.2411901052076026, 80], "2001-02-23": [0.271371634522176, 1.2348065480476653, 81], "2001-03-12": [0.270495631445227, 1.227186251851043, 82], "2001-03-14": [0.30279432061240774, 1.2546738438115814, 83], "2001-03-15": [0.29154958694669736, 1.2513438418274043, 84], "2001-03-16": [0.2857892211007629, 1.2450062881204544, 85], "2001-03-20": [0.29158911460039333, 1.2388292129163645, 86], "2001-03-21": [0.2754870456709754, 1.2407294473704262, 87], "2001-03-22": [0.26339292070564685, 1.238784392200276, 88], "2001-03-23": [0.2761910923849252, 1.2376291362858962, 89], "2001-03-26": [0.2878444035981092, 1.2356121743694268, 90], "2001-03-27": [0.2887197713476679, 1.228756862242274, 91], "2001-03-28": [0.29169049442597766, 1.2223189675767279, 92], "2001-04-03": [0.28095149354363724, 1.2200611325414379, 93], "2001-04-05": [0.2819171735956298, 1.213520053680123, 94], "2001-04-09": [0.27974538220432876, 1.2072334979982338, 95], "2001-04-10": [0.2763493020586257, 1.2013237426983263, 96], "2001-04-18": [0.27804863032357297, 1.195167658303945, 97], "2001-04-27": [0.2770944062476747, 1.1890285641054414, 98], "2001-05-03": [0.2631267735522203, 1.1910822348570904, 99], "2001-05-10": [0.2564128069339146, 1.1869517915102672, 100], "2001-05-14": [0.25387406627120257, 1.1812776876903845, 101], "2001-06-12": [0.26327966709305733, 1.1792473994514534, 102], "2001-06-14": [0.27075796758124654, 1.1759043877085902, 103], "2001-06-26": [0.2694125744801618, 1.1702626241059366, 104], "2001-06-28": [0.26753120559924576, 1.1647823197081422, 105], "2001-07-02": [0.27268145661268434, 1.1604345690149576, 106], "2001-07-03": [0.259214003569433, 1.1633191184822713, 107], "2001-07-06": [0.256589250587418, 1.15819154246927, 108], "2001-07-11": [0.2827608655398808, 1.1847561485965967, 109], "2001-07-12": [0.2850892984790881, 1.1795617877040934, 110], "2001-07-19": [0.2608630281301235, 1.201609121353834, 111], "2001-07-24": [0.27100299672253714, 1.2009880999702323, 112], "2001-07-25": [0.2705283531521573, 1.1956251705703906, 113], "2001-07-27": [0.27230216385632344, 1.1904736969506011, 114], "2001-08-08": [0.26682935453824025, 1.1866929850160848, 115], "2001-08-09": [0.26428277095215846, 1.1818404899052724, 116], "2001-08-14": [0.2631473595607649, 1.176799410799634, 117], "2001-08-17": [0.2415877221667256, 1.194934721947418, 118], "2001-08-24": [0.23898398141395122, 1.1901996309443044, 119], "2001-08-30": [0.2472504374330082, 1.1886426224732047, 120], "2001-09-04": [0.24680342959141105, 1.1836897964969153, 121], "2001-09-05": [0.24346606824932085, 1.1793645963683297, 122], "2001-09-06": [0.23671380194139488, 1.1769061032445116, 123], "2001-09-07": [0.23916469619997668, 1.1724298652161496, 124], "2001-09-11": [0.23796265134026726, 1.1677700908908957, 125], "2001-09-12": [0.23323267931549013, 1.164300837993621, 126], "2001-09-14": [0.23499282361292292, 1.159841023221079, 127], "2001-09-17": [0.22838634529238835, 1.1576810694841897, 128], "2001-09-19": [0.2290334305131887, 1.1531734310301813, 129], "2001-09-20": [0.23089500715341618, 1.1488911507255044, 130], "2001-09-21": [0.22431412709316065, 1.1469397340867271, 131], "2001-09-24": [0.22227010364620797, 1.1427950351455363, 132], "2001-09-26": [0.22059889985939438, 1.1386211658771583, 133], "2001-09-27": [0.2220667189308787, 1.1344598078876904, 134], "2001-09-28": [0.2191581442647033, 1.13072395350812, 135], "2001-10-01": [0.21684736620318412, 1.126850573799466, 136], "2001-10-04": [0.22277729214549344, 1.12484353541919, 137], "2001-10-10": [0.24761345294630274, 1.158084894937307, 138], "2001-10-11": [0.25737352280025794, 1.1596047018576847, 139], "2001-10-15": [0.2488532736537074, 1.15981564744633, 140], "2001-10-17": [0.2526755835948285, 1.1565569504981865, 141], "2001-10-18": [0.2618013137004269, 1.157567663572287, 142], "2001-10-19": [0.26341523705971825, 1.1536459666546854, 143], "2001-10-22": [0.2655431535028554, 1.1498887191107294, 144], "2001-10-23": [0.2773903822850305, 1.1547352753774027, 145], "2001-10-25": [0.2582519289388268, 1.1737523327038386, 146], "2001-10-26": [0.26169183365275894, 1.170469015992308, 147], "2001-10-29": [0.26418513727568654, 1.1668753388225552, 148], "2001-10-30": [0.2700239643846073, 1.1651084768742266, 149], "2001-10-31": [0.26941688775949, 1.1612159382198683, 150], "2001-11-05": [0.2696614779700179, 1.1573426483204434, 151], "2001-11-08": [0.28521061440963913, 1.1693252014104918, 152], "2001-11-12": [0.2820862140737714, 1.1661129697431591, 153], "2001-11-13": [0.2871557385305034, 1.163997234262842, 154], "2001-11-28": [0.2928524073513123, 1.162377581826646, 155], "2001-12-04": [0.2838596995481891, 1.1640533753723337, 156], "2001-12-05": [0.28368260176443827, 1.1603185586262805, 157], "2001-12-10": [0.301555640669024, 1.1782343319375497, 158], "2001-12-13": [0.29890381800814575, 1.1749757232603837, 159], "2001-12-17": [0.2971572333051268, 1.1714833427130131, 160], "2001-12-21": [0.303883428147963, 1.1709311691308923, 161], "2001-12-27": [0.3044306484247958, 1.167309851807644, 162], "2002-01-02": [0.308664983160195, 1.1649564912164185, 163], "2002-01-03": [0.3127251411338214, 1.1625408532103758, 164], "2002-01-14": [0.31409913375126064, 1.1591254765487455, 165], "2002-01-29": [0.31783175989142326, 1.1566078874085266, 166], "2002-01-31": [0.316648521507963, 1.1532202428439533, 167], "2002-02-05": [0.336677235698899, 1.17870541356302, 168], "2002-02-19": [0.3427939310573688, 1.1778792349821587, 169], "2002-02-25": [0.3486851349000335, 1.1768985070144944, 170], "2002-02-27": [0.3478523455508999, 1.1734824677127271, 171], "2002-03-04": [0.3440991677152322, 1.171081109177914, 172], "2002-04-08": [0.34689303938855715, 1.1682499380735902, 173], "2002-04-11": [0.3695904233749214, 1.2027296663962694, 174], "2002-04-16": [0.37165279953344793, 1.199578859085893, 175], "2002-05-08": [0.37541968945028287, 1.197190038075909, 176], "2002-05-14": [0.3848645272873476, 1.2003789902022637, 177], "2002-05-22": [0.3686005095374529, 1.2164921865333296, 178], "2002-05-30": [0.3647272935634562, 1.2141765852645443, 179], "2002-06-04": [0.36270103082143695, 1.2110854308857706, 180], "2002-06-07": [0.36896229795899493, 1.2106507588196898, 181], "2002-06-12": [0.36667423267407695, 1.2076963279904451, 182], "2002-06-14": [0.37115164982717, 1.2058960015730547, 183], "2002-06-17": [0.37429892458652236, 1.2033542212693746, 184], "2002-06-19": [0.3709082850048201, 1.2009655797879657, 185], "2002-06-20": [0.3783017484594558, 1.2019523213158272, 186], "2002-06-24": [0.3788326533385303, 1.1987388970563382, 187], "2002-06-25": [0.38465069438592886, 1.1981879278462508, 188], "2002-06-26": [0.3592289088555633, 1.24505515872741, 189], "2002-06-28": [0.36175744709799135, 1.2422460292387143, 190], "2002-07-02": [0.3618534300311988, 1.2389733580943714, 191], "2002-07-03": [0.35158910388057546, 1.2438836248312855, 192], "2002-07-04": [0.35839837600605834, 1.2442413635687406, 193], "2002-07-05": [0.3546995133830622, 1.2420826724652951, 194], "2002-07-10": [0.3516083863340804, 1.2396290508795396, 195], "2002-07-11": [0.352997015358128, 1.236599255028335, 196], "2002-07-15": [0.35578585128784507, 1.234061578187001, 197], "2002-07-17": [0.35974266253858667, 1.232184012129497, 198], "2002-07-18": [0.3612019653263847, 1.2292408857627133, 199], "2002-07-19": [0.35786433849239535, 1.2270566304673851, 200], "2002-07-22": [0.35828749266916265, 1.2239998469987745, 201], "2002-07-23": [0.35934281804530643, 1.221043400182544, 202], "2002-07-24": [0.3639907870924129, 1.2198162130262704, 203], "2002-07-25": [0.36607159461024164, 1.2171709221719784, 204], "2002-07-29": [0.3631526384784274, 1.2149030564658136, 205], "2002-08-01": [0.36699835654643215, 1.213192538270482, 206], "2002-08-05": [0.3711067473348149, 1.211686934157043, 207], "2002-08-06": [0.3718651507016581, 1.2088060972266907, 208], "2002-08-08": [0.3700256386364014, 1.20619000878833, 209], "2002-08-09": [0.3642125200992689, 1.2062460417645007, 210], "2002-08-12": [0.35992858993833554, 1.204978458505866, 211], "2002-08-14": [0.3586302760239387, 1.2022682927137558, 212], "2002-08-15": [0.35648084749929165, 1.1998395563303137, 213], "2002-08-19": [0.3598625549235016, 1.1980415257835668, 214], "2002-08-20": [0.35912615635190187, 1.1952878576421038, 215], "2002-08-22": [0.35883654731671627, 1.1925124746702325, 216], "2002-08-23": [0.3542914040568343, 1.1916312885142448, 217], "2002-08-27": [0.35600556794760424, 1.1891517899368438, 218], "2002-08-28": [0.35840331621858296, 1.1869517424975358, 219], "2002-08-29": [0.3541474491038731, 1.1859199141608139, 220], "2002-09-02": [0.35433019111147634, 1.1832246905296198, 221], "2002-09-03": [0.3523583914035671, 1.1809101861767015, 222], "2002-09-06": [0.3493896314644487, 1.1790812247646627, 223], "2002-09-09": [0.3514574987851869, 1.1768415988727616, 224], "2002-09-10": [0.3547398822926952, 1.175243578251999, 225], "2002-09-11": [0.3520406216794914, 1.173330921174477, 226], "2002-09-12": [0.35286204768817053, 1.1707975912523392, 227], "2002-09-13": [0.35199519474097174, 1.168289221681693, 228], "2002-09-18": [0.35437945371585566, 1.166282597609732, 229], "2002-09-19": [0.3578439453741256, 1.164918844869331, 230], "2002-09-23": [0.35746578189257744, 1.1623978637879921, 231], "2002-09-24": [0.3426018755016228, 1.181768447558048, 232], "2002-09-25": [0.348193884958178, 1.1823040976837929, 233], "2002-09-26": [0.3479167068836176, 1.179771855481532, 234], "2002-09-30": [0.34939707367248257, 1.1774669861733449, 235], "2002-10-01": [0.3401523874189699, 1.1835110327390086, 236], "2002-10-02": [0.34382792697178344, 1.182355688919813, 237], "2002-10-03": [0.348209646877889, 1.1817934939869965, 238], "2002-10-04": [0.34939283615856065, 1.1794499690251745, 239], "2002-10-07": [0.3513871791857343, 1.1773853638463787, 240], "2002-10-08": [0.35511514054753845, 1.1763543918193664, 241], "2002-10-10": [0.3536477226113916, 1.174133215909839, 242], "2002-10-11": [0.3558344439831779, 1.1722005485708862, 243], "2002-10-15": [0.354452173857575, 1.1699853785377134, 244], "2002-10-16": [0.36825959770434674, 1.1874189209653094, 245], "2002-10-17": [0.37758617559925217, 1.193987882518252, 246], "2002-10-23": [0.3792392127888447, 1.1918417882953554, 247], "2002-10-24": [0.3788621104961671, 1.1894415313706967, 248], "2002-10-29": [0.3814561439433838, 1.1877465880884783, 249], "2002-10-30": [0.380105324776131, 1.1855515616243801, 250], "2002-10-31": [0.3788915430696923, 1.1833343420279319, 251], "2002-11-04": [0.3833388933711943, 1.1830831114549043, 252], "2002-11-07": [0.3977677168869934, 1.2028315136946996, 253], "2002-11-12": [0.39771652987326356, 1.200452299902753, 254], "2002-11-14": [0.39857324060381033, 1.1981649788669677, 255], "2002-11-21": [0.3986201024417599, 1.1958135630297615, 256], "2002-11-26": [0.39907164800578865, 1.1934976571043074, 257], "2002-11-27": [0.39734967457949055, 1.1914944910010856, 258], "2002-12-03": [0.39302077634499677, 1.191222087425196, 259], "2002-12-09": [0.39609109230795836, 1.1899505185814854, 260], "2002-12-12": [0.39203567927126054, 1.1894657014790793, 261], "2002-12-13": [0.39593461424148857, 1.1888610933801451, 262], "2002-12-16": [0.39624345809167477, 1.1866006760881673, 263], "2002-12-17": [0.39888766484828336, 1.1851216455732998, 264], "2002-12-18": [0.39859072454743616, 1.1828848441850195, 265], "2002-12-27": [0.39835506398476245, 1.1806571325672972, 266], "2003-01-02": [0.39652577817834495, 1.1788147882113165, 267], "2003-01-08": [0.39655551881043694, 1.176605299770411, 268], "2003-01-15": [0.3965115043154439, 1.1744083109446506, 269], "2003-01-17": [0.39842939794756915, 1.1726469029152202, 270], "2003-01-20": [0.3986227360669412, 1.1704776473825502, 271], "2003-01-22": [0.40149224555151036, 1.1692742096555382, 272], "2003-01-27": [0.40301085979009316, 1.1673925168620294, 273], "2003-01-30": [0.4052367592060134, 1.1658348492781831, 274], "2003-02-03": [0.40920539634148034, 1.1655649661283125, 275], "2003-02-04": [0.41019533230687966, 1.1635600591599178, 276], "2003-02-05": [0.4090424178870916, 1.1616087420158725, 277], "2003-02-06": [0.40831118540725264, 1.1595741767444432, 278], "2003-02-11": [0.4068477044559721, 1.1577448303600761, 279], "2003-02-12": [0.406243173351588, 1.155712427809607, 280], "2003-02-14": [0.4047974681083439, 1.1539013256501627, 281], "2003-02-17": [0.4067887232091884, 1.1523315643680185, 282], "2003-02-19": [0.40659872171291767, 1.150291049606703, 283], "2003-02-25": [0.40750042903727596, 1.1483574799777572, 284], "2003-02-28": [0.4065762088999284, 1.1464401189748166, 285], "2003-03-04": [0.4054625001059198, 1.1445820281822874, 286], "2003-03-07": [0.4040497387815089, 1.1428299014142937, 287], "2003-03-10": [0.3990114318722526, 1.1440367991175364, 288], "2003-03-12": [0.39830002591247254, 1.1421129303219872, 289], "2003-03-13": [0.3993486536805169, 1.1402750829161534, 290], "2003-03-14": [0.39697044670887843, 1.1390301050155303, 291], "2003-03-17": [0.39536728470299837, 1.1374012810756826, 292], "2003-03-19": [0.39646366047686404, 1.135607086616034, 293], "2003-03-21": [0.3970018531975294, 1.1337050920346927, 294], "2003-03-24": [0.39629386783023535, 1.13184070309455, 295], "2003-03-25": [0.3975768830625675, 1.1301362941591953, 296], "2003-03-27": [0.38580558412809696, 1.1463186749255345, 297], "2003-03-31": [0.38485994039381627, 1.1445036433386968, 298], "2003-04-01": [0.3800642864221099, 1.1455869592175993, 299], "2003-04-02": [0.3796974466592237, 1.1436873073370422, 300], "2003-04-07": [0.38132345798081685, 1.1421280164086294, 301], "2003-04-08": [0.38141079245005716, 1.1402302254811556, 302], "2003-04-10": [0.3757820960552347, 1.1425496186782051, 303], "2003-04-15": [0.37695137097632, 1.1408448384837753, 304], "2003-04-23": [0.3730759076624597, 1.1409761030394907, 305], "2003-04-24": [0.3722266849611281, 1.1392009765799094, 306], "2003-04-25": [0.37324251853190493, 1.1374772773187538, 307], "2003-04-28": [0.37111765916762746, 1.1362353078806617, 308], "2003-05-06": [0.3716919234351383, 1.1344341843796304, 309], "2003-05-08": [0.3719665293108526, 1.1326073626579531, 310], "2003-05-15": [0.37607679951053696, 1.133099955480774, 311], "2003-05-19": [0.3772608004177727, 1.1314700805431641, 312], "2003-05-22": [0.3903894969113738, 1.15328694416852, 313], "2003-05-28": [0.39529873918059816, 1.1547246231565802, 314], "2003-06-02": [0.3920426219067797, 1.15433193583506, 315], "2003-06-06": [0.3946475138047781, 1.1534280739335037, 316], "2003-06-09": [0.39389383483494744, 1.151679761451262, 317], "2003-06-13": [0.3908502437201563, 1.1511420104867875, 318], "2003-06-16": [0.3893998419727521, 1.1496225156800957, 319], "2003-06-19": [0.3917935100781472, 1.1486175903233653, 320], "2003-06-23": [0.39080560732088887, 1.146958049339254, 321], "2003-07-01": [0.38803868695010296, 1.1462459506997165, 322], "2003-07-02": [0.38964584545256287, 1.1448291152348855, 323], "2003-07-07": [0.39028289700741675, 1.1431130757907153, 324], "2003-07-14": [0.38943049480308545, 1.1414510930324857, 325], "2003-07-24": [0.38559024065880415, 1.141800921359137, 326], "2003-08-06": [0.3842285467542554, 1.140314238429071, 327], "2003-08-14": [0.38124303430116074, 1.1398524538143258, 328], "2003-09-01": [0.38151103861771873, 1.1381239289995388, 329], "2003-09-03": [0.38142389530106496, 1.1363940436471787, 330], "2003-09-09": [0.3780425825364547, 1.1363373308380214, 331], "2003-09-22": [0.37447434800658563, 1.1364807772347467, 332], "2003-09-30": [0.372808113911836, 1.1351752067203498, 333], "2003-10-01": [0.3795533748113683, 1.1401532905105631, 334], "2003-10-03": [0.37983694715523864, 1.1384570259171998, 335], "2003-10-09": [0.3828046849003412, 1.1380574678919786, 336], "2003-10-13": [0.38166876595404936, 1.1365539795423614, 337], "2003-10-22": [0.3806600013238552, 1.1350179727789302, 338], "2003-11-03": [0.38356626052100257, 1.1346002253534289, 339], "2003-11-17": [0.3844600341018268, 1.1330453992334342, 340], "2003-11-24": [0.38427599239597027, 1.13138303345652, 341], "2003-12-01": [0.38341390673145537, 1.1298353833268775, 342], "2004-02-09": [0.38315972701793144, 1.128192189184992, 343], "2004-02-19": [0.3851504376957722, 1.1271512874433331, 344], "2004-03-11": [0.38747481533747574, 1.1263395315397837, 345], "2004-03-15": [0.38862543325131693, 1.124909595318697, 346], "2004-03-17": [0.39039273262302954, 1.1237651494946153, 347], "2004-03-18": [0.38905048709165874, 1.122424048349452, 348], "2004-03-22": [0.3914734544953969, 1.1217238634128783, 349], "2004-03-25": [0.39869064310897606, 1.128224187639664, 350], "2004-04-02": [0.40000780171964784, 1.12688151187858, 351], "2004-04-14": [0.400270937266784, 1.12528595215393, 352], "2004-04-28": [0.40312938696595885, 1.1249690617249568, 353], "2004-05-06": [0.4099639001253229, 1.1307103028253287, 354], "2004-05-10": [0.4135811940816804, 1.1311672290902672, 355], "2004-05-17": [0.41559300661156895, 1.1302105267728977, 356], "2004-05-19": [0.41771644069561165, 1.1293349386143983, 357], "2004-06-14": [0.4192531081133239, 1.1281268651911136, 358], "2004-07-22": [0.4248424103417684, 1.131516922847895, 359], "2004-08-06": [0.4235653826481224, 1.130199652380583, 360], "2004-08-23": [0.42409084866165647, 1.1286729967792137, 361], "2004-10-01": [0.42910136485990624, 1.131133071699896, 362], "2004-10-25": [0.429368831531177, 1.1295811475294266, 363], "2005-03-16": [0.4316947280384105, 1.1288966783851113, 364], "2005-04-15": [0.43643547525949844, 1.1309773870964148, 365], "2005-04-18": [0.43862358711626476, 1.1302025423061641, 366], "2005-04-27": [0.43948855175742974, 1.1287791254996404, 367], "2005-06-01": [0.4432200539780666, 1.129510782944398, 368], "2005-07-07": [0.4429837989407305, 1.127984207282601, 369], "2005-07-08": [0.4438353986806667, 1.1265738349054144, 370], "2005-10-06": [0.44311272054272055, 1.1251365161182105, 371], "2005-10-19": [0.4467773321847546, 1.1258399942182846, 372], "2005-10-27": [0.4510119318519325, 1.1272963082268315, 373], "2005-10-31": [0.4507592647721621, 1.1257947772881842, 374], "2005-11-03": [0.450013896838867, 1.1243813469684334, 375], "2005-12-01": [0.45530706096725704, 1.127562298424521, 376], "2006-02-28": [0.45728121111088954, 1.1267140865641088, 377], "2006-05-12": [0.45945429856159964, 1.126011692855006, 378], "2006-05-15": [0.4669010682498645, 1.133827721937025, 379], "2006-05-17": [0.46730017821516573, 1.132357646629096, 380], "2006-05-22": [0.4716082001985362, 1.1339887740404053, 381], "2006-05-23": [0.47368281219976216, 1.1332252766283293, 382], "2006-05-24": [0.4737942815106267, 1.1317431279456929, 383], "2006-05-25": [0.4812429470929387, 1.1396506469174783, 384], "2006-05-26": [0.48459662964397304, 1.1400664291377807, 385], "2006-05-30": [0.48860196499395037, 1.1413009995483154, 386], "2006-06-06": [0.4933741378763438, 1.1436812665737581, 387], "2006-06-08": [0.49555848550806847, 1.1430128040459266, 388], "2006-06-09": [0.49835141676610917, 1.1428672009756966, 389], "2006-06-13": [0.5020215896044472, 1.1436962466001206, 390], "2006-06-15": [0.5049238355980993, 1.1436697768036173, 391], "2006-06-29": [0.5053115176949425, 1.1422321375879265, 392], "2006-06-30": [0.5064765693411597, 1.1410080592102905, 393], "2006-07-13": [0.5115961285084437, 1.1440775171273148, 394], "2006-07-14": [0.5131126566128549, 1.143022175535208, 395], "2006-07-19": [0.5153869879752905, 1.1424711998688137, 396], "2006-07-24": [0.5194832427757192, 1.1439430773652908, 397], "2006-09-12": [0.5192875156659528, 1.1425081072326677, 398], "2006-09-26": [0.5230534297857286, 1.1435487423612707, 399], "2006-11-27": [0.5249874277986667, 1.1427696235610676, 400], "2006-11-29": [0.5252600469789768, 1.1413533236078897, 401], "2007-01-03": [0.5241395880178011, 1.1401506455070376, 402], "2007-01-11": [0.5259379497056322, 1.1393037998636697, 403], "2007-02-27": [0.5289329351691648, 1.1394806391543006, 404], "2007-02-28": [0.5300026784105384, 1.1382731164782105, 405], "2007-03-08": [0.5341639138831121, 1.1399547187089167, 406], "2007-03-14": [0.5355298230391992, 1.1388833886104652, 407], "2007-03-15": [0.5426219282821833, 1.146468521582749, 408], "2007-03-19": [0.5448217096785849, 1.1459265654085455, 409], "2007-03-22": [0.5463664455327956, 1.1449521426174727, 410], "2007-04-20": [0.5421487700388228, 1.1467472456953216, 411], "2007-06-06": [0.5418430686993193, 1.1453681345899889, 412], "2007-06-14": [0.5446061157103468, 1.1453545463278765, 413], "2007-07-24": [0.5422554661624812, 1.144966486406889, 414], "2007-07-26": [0.5444578435409406, 1.1444626060972118, 415], "2007-07-31": [0.5476298758875188, 1.1449123238755958, 416], "2007-08-03": [0.5454630024242544, 1.1443911772696935, 417], "2007-08-07": [0.5497365993237235, 1.146352808618108, 418], "2007-08-08": [0.5538585570413143, 1.1480853439648238, 419], "2007-08-09": [0.5615385902818705, 1.1574657473041297, 420], "2007-08-14": [0.5667896569497523, 1.1610967480277155, 421], "2007-08-16": [0.5709864998804144, 1.1629171531489524, 422], "2007-08-17": [0.5726374726659408, 1.1620346800815617, 423], "2007-08-22": [0.5783214217960171, 1.1665464528815448, 424], "2007-08-28": [0.5782398892930353, 1.1651712087687964, 425], "2007-08-31": [0.5795083917293113, 1.1640940736861316, 426], "2007-09-05": [0.5829718899766584, 1.1649275541517714, 427], "2007-09-07": [0.5850339815567109, 1.164344467811636, 428], "2007-09-11": [0.5883156446267876, 1.1649680493490036, 429], "2007-09-17": [0.5924171340908196, 1.1667135842607599, 430], "2007-09-18": [0.594481131041048, 1.1661436679821313, 431], "2007-09-19": [0.5982085856786961, 1.167363708242384, 432], "2007-10-22": [0.6008557688947235, 1.167312221663534, 433], "2007-11-01": [0.6044056471656428, 1.1683064706561812, 434], "2007-11-05": [0.6073983793010063, 1.1686278450237388, 435], "2007-11-08": [0.6073605224146513, 1.167284089407108, 436], "2007-11-09": [0.6113177120728551, 1.1688755971999518, 437], "2007-11-15": [0.6125787904791128, 1.1678357097631415, 438], "2007-11-19": [0.6178474708547014, 1.1717135538891048, 439], "2007-11-21": [0.6198806320534109, 1.1711550436457976, 440], "2007-11-23": [0.6202091084731968, 1.169843765893364, 441], "2007-11-28": [0.6233812139500248, 1.1704181730492191, 442], "2007-11-30": [0.627078574092054, 1.1716806074319885, 443], "2007-12-04": [0.6270685363711844, 1.1703574407943895, 444], "2007-12-05": [0.6293663339536922, 1.1700432004106796, 445], "2007-12-13": [0.6296860331314971, 1.168747307357437, 446], "2007-12-17": [0.6337364902893581, 1.1705729911772886, 447], "2007-12-24": [0.6341730913851212, 1.169299409592032, 448], "2008-01-03": [0.635181078511179, 1.1681889351625239, 449], "2008-01-04": [0.6383569300263164, 1.16883050917054, 450], "2008-01-09": [0.6353346289675342, 1.1692939786234153, 451], "2008-01-15": [0.633359814503632, 1.1687512852531992, 452], "2008-01-21": [0.633399221143801, 1.1674580041909717, 453], "2008-01-22": [0.637914030781616, 1.1701297216863213, 454], "2008-01-23": [0.6359640089756632, 1.169580213103857, 455], "2008-01-24": [0.6381058955142445, 1.1691892246829707, 456], "2008-02-01": [0.6442393417992461, 1.1752436284399927, 457], "2008-02-05": [0.6440001347407235, 1.1739682613953164, 458], "2008-02-07": [0.643898970082871, 1.1726879392094536, 459], "2008-02-12": [0.6439922785347804, 1.1714115143026265, 460], "2008-02-15": [0.6464703178019612, 1.1713465475560552, 461], "2008-02-18": [0.6490810489064353, 1.1714202639783544, 462], "2008-02-25": [0.6519995145863531, 1.1718356649062998, 463], "2008-02-26": [0.6522628011243142, 1.170583238279398, 464], "2008-02-28": [0.6548065110812188, 1.170606989650968, 465], "2008-02-29": [0.6582436826198077, 1.1716992749786896, 466], "2008-03-03": [0.6631267625273822, 1.175188693573625, 467], "2008-03-04": [0.6606568257927785, 1.1751451911938418, 468], "2008-03-05": [0.6662961302844064, 1.1802247502187189, 469], "2008-03-06": [0.6685602705060976, 1.179987218400805, 470], "2008-03-10": [0.6729097611699648, 1.1825048655683807, 471], "2008-03-13": [0.6742570786204497, 1.181611498902489, 472], "2008-03-17": [0.6775376777804372, 1.1825135321988718, 473], "2008-03-18": [0.6814260244598676, 1.1842923861464296, 474], "2008-03-25": [0.681823030943106, 1.1830741141693024, 475], "2008-03-27": [0.6848333491033805, 1.1836516451855974, 476], "2008-04-01": [0.6856274347102391, 1.1825348439170977, 477], "2008-04-11": [0.685237845219166, 1.1813253470148102, 478], "2008-04-16": [0.6864419976707393, 1.1803832426279788, 479], "2008-04-18": [0.6875949602056541, 1.1794210005162662, 480], "2008-04-25": [0.6860231987268676, 1.1786959692808074, 481], "2008-05-02": [0.6863997217422365, 1.1774990925948334, 482], "2008-05-09": [0.6860193912582555, 1.176306684108591, 483], "2008-05-20": [0.6882848134020538, 1.176144791963428, 484], "2008-05-23": [0.6871903652939896, 1.1751763359824718, 485], "2008-06-04": [0.6853778902453804, 1.1746439710281442, 486], "2008-06-06": [0.6849706898947536, 1.1734692745339743, 487], "2008-06-11": [0.6866571207296347, 1.172855684593034, 488], "2008-06-18": [0.6874438406635593, 1.1717825224397085, 489], "2008-06-20": [0.6844898392649562, 1.1724086991835396, 490], "2008-06-26": [0.6843022532351436, 1.171219128688766, 491], "2008-07-01": [0.6857883640800101, 1.1704900875644553, 492], "2008-07-04": [0.6864493767667157, 1.1693920672480262, 493], "2008-07-07": [0.6869253211244196, 1.1682533632158658, 494], "2008-07-08": [0.6899234547119244, 1.1689750185012067, 495], "2008-07-09": [0.692332744424769, 1.1690257064460374, 496], "2008-07-10": [0.6897985634391698, 1.1692123794526093, 497], "2008-07-11": [0.6878584496814666, 1.1688376542484382, 498], "2008-07-15": [0.6892804092914692, 1.1680954962318126, 499], "2008-07-17": [0.6900464400774878, 1.1670501818675878, 500], "2008-07-18": [0.6898848368907224, 1.1658881587243914, 501], "2008-07-23": [0.6899288310515569, 1.164724433588756, 502], "2008-07-24": [0.6901879127014834, 1.1635782795468312, 503], "2008-07-30": [0.6944704881188379, 1.1663902956523176, 504], "2008-08-04": [0.6940500604290641, 1.1652708901239288, 505], "2008-08-05": [0.6868319333797639, 1.175385345457614, 506], "2008-08-11": [0.6882755081747604, 1.1746731264150616, 507], "2008-08-13": [0.6880756547108899, 1.1735227449042238, 508], "2008-08-19": [0.6885958904659687, 1.172425884629851, 509], "2008-08-22": [0.6913087891710801, 1.172874847507061, 510], "2008-08-28": [0.6929142165103918, 1.1722862847541686, 511], "2008-09-03": [0.6950579921214943, 1.1721428347094724, 512], "2008-09-04": [0.6966374172356823, 1.171543900666726, 513], "2008-09-05": [0.6974914866736905, 1.1705616483224393, 514], "2008-09-08": [0.6981808117916333, 1.1695270400949078, 515], "2008-09-12": [0.6942583851444319, 1.1717834570019443, 516], "2008-09-15": [0.6978814525693302, 1.17354247067316, 517], "2008-09-16": [0.6977070315506059, 1.1724136880413745, 518], "2008-09-17": [0.6998260784532443, 1.1722758948975696, 519], "2008-09-19": [0.7021645503563668, 1.172359383764578, 520], "2008-09-22": [0.7079329016640961, 1.178608962542892, 521], "2008-09-23": [0.7150508919314201, 1.1886548578727951, 522], "2008-09-25": [0.707808865453564, 1.1990093490037386, 523], "2008-09-26": [0.708847357636282, 1.1980983821210618, 524], "2008-09-29": [0.7138778713160361, 1.2024915925175368, 525], "2008-09-30": [0.7230993957060101, 1.2198200589930657, 526], "2008-10-02": [0.7240116184211189, 1.218839897759972, 527], "2008-10-03": [0.7235146503214027, 1.2177364988593904, 528], "2008-10-06": [0.726635779603912, 1.218698862585351, 529], "2008-10-08": [0.7261331425442895, 1.2176014153545327, 530], "2008-10-09": [0.7212367786353365, 1.2216735783350376, 531], "2008-10-10": [0.7213486293470603, 1.2205254110047195, 532], "2008-10-13": [0.7228823891509651, 1.21989178358089, 533], "2008-10-14": [0.7259575360246726, 1.2208168371323478, 534], "2008-10-15": [0.7271714039230814, 1.2199963358823385, 535], "2008-10-16": [0.7280414799827196, 1.2190220627790205, 536], "2008-10-17": [0.7279066594536856, 1.217888391730001, 537], "2008-10-20": [0.7322207551526445, 1.2208615692726432, 538], "2008-10-22": [0.7297840524416365, 1.2210376091841655, 539], "2008-10-24": [0.7324435132197723, 1.2214687916405629, 540], "2008-10-27": [0.731858650252475, 1.2204130976418648, 541], "2008-10-28": [0.7267282295874398, 1.2251208769517672, 542], "2008-10-29": [0.7293399899498683, 1.225502304185665, 543], "2008-10-31": [0.7280951584558283, 1.2247175323844788, 544], "2008-11-04": [0.7315010988352656, 1.2261721080525319, 545], "2008-11-05": [0.7322868789224647, 1.2251842532685564, 546], "2008-11-06": [0.741208022809331, 1.2417170427655857, 547], "2008-11-07": [0.7418779760989305, 1.2406806269624078, 548], "2008-11-11": [0.7458654719956775, 1.2430642241915344, 549], "2008-11-12": [0.7575052088556234, 1.2715777555952466, 550], "2008-11-17": [0.7610818739711749, 1.2731923806153818, 551], "2008-11-19": [0.7578665300478065, 1.2742777158321479, 552], "2008-11-20": [0.760621363956784, 1.2747701117024814, 553], "2008-11-21": [0.7566378089960454, 1.27706363024299, 554], "2008-11-24": [0.7574297117489073, 1.276046909099154, 555], "2008-11-27": [0.7573113650987123, 1.2748998530734164, 556], "2008-11-28": [0.7590665181265355, 1.2744262166961469, 557], "2008-12-01": [0.7599158994300902, 1.2734397667580557, 558], "2008-12-02": [0.7620662187499155, 1.2733135528811492, 559], "2008-12-05": [0.7621291854301125, 1.2721749948161498, 560], "2008-12-08": [0.7626428464246288, 1.2710968427994687, 561], "2008-12-09": [0.7654257092237597, 1.2716758556413317, 562], "2008-12-12": [0.7741153302664048, 1.2871650360976297, 563], "2008-12-22": [0.7777513413603001, 1.2889171579125767, 564], "2008-12-30": [0.7770274117888528, 1.287888955313276, 565], "2009-01-05": [0.7764351341642939, 1.28682587482787, 566], "2009-01-06": [0.7903751241255743, 1.3278465647259319, 567], "2009-01-12": [0.7952550227253276, 1.331763063686849, 568], "2009-01-13": [0.7964466595998947, 1.3308938027793353, 569], "2009-01-14": [0.7977740401656798, 1.3301013692350243, 570], "2009-01-19": [0.8014622079071296, 1.3318531900885904, 571], "2009-01-20": [0.8003494099450266, 1.3309525540297298, 572], "2009-01-26": [0.8012062438316135, 1.329946789692866, 573], "2009-01-28": [0.8013938560180712, 1.32879337323458, 574], "2009-01-29": [0.8086275088224173, 1.33891859610565, 575], "2009-02-02": [0.8146759030989821, 1.3456065966219857, 576], "2009-02-03": [0.8169194580770514, 1.3455177304326738, 577], "2009-02-04": [0.8202761522016394, 1.346771279032211, 578], "2009-02-06": [0.8210026127600947, 1.345719284392576, 579], "2009-02-10": [0.8223499652567414, 1.344948163426787, 580], "2009-02-12": [0.816972273998088, 1.3500255776673493, 581], "2009-02-16": [0.8208040135189393, 1.3520270577909077, 582], "2009-02-17": [0.8245316522695043, 1.3538601350268955, 583], "2009-02-20": [0.8254903024219593, 1.3528968890481499, 584], "2009-02-24": [0.8260010795436551, 1.3517945436561953, 585], "2009-02-26": [0.8275822853178711, 1.3511809426148675, 586], "2009-02-27": [0.8324873717518663, 1.3552481592867367, 587], "2009-03-02": [0.8329582528406211, 1.354141422901751, 588], "2009-03-03": [0.8340410073950465, 1.3532446105708411, 589], "2009-03-04": [0.8361550930050556, 1.353070130641576, 590], "2009-03-05": [0.8397759174416847, 1.3547855764258527, 591], "2009-03-06": [0.8327244212897252, 1.364468640152943, 592], "2009-03-10": [0.8356562712518653, 1.3651838911394003, 593], "2009-03-16": [0.8348871002034205, 1.3641611351537608, 594], "2009-03-23": [0.8346303653548279, 1.3630267541576726, 595], "2009-03-30": [0.8361167972373543, 1.3623642534430431, 596], "2009-03-31": [0.8393499168219198, 1.363511159564406, 597], "2009-04-01": [0.8375845971435043, 1.3630524884767183, 598], "2009-04-02": [0.841851904386465, 1.3659110317646597, 599], "2009-04-09": [0.8462033786527619, 1.3689263789206392, 600], "2009-04-14": [0.8513111995824718, 1.3735050621716829, 601], "2009-04-16": [0.8540714927973796, 1.3740320096119158, 602], "2009-04-17": [0.8618042118355319, 1.385959653720102, 603], "2009-04-20": [0.8649066196774351, 1.3869073783979176, 604], "2009-04-24": [0.866538679203716, 1.3863401251791208, 605], "2009-04-28": [0.8675860398537917, 1.3854338470253638, 606], "2009-04-29": [0.8694106116737074, 1.3850199688523925, 607], "2009-04-30": [0.8709895216523651, 1.3844261510449527, 608], "2009-05-06": [0.8631503270547651, 1.396749177965747, 609], "2009-05-08": [0.8637315530164528, 1.3956757777887112, 610], "2009-05-11": [0.860370873952307, 1.3970033336580625, 611], "2009-05-13": [0.8605642334233016, 1.3958678510673954, 612], "2009-05-18": [0.861641173869274, 1.394981820119937, 613], "2009-05-19": [0.8607169474313879, 1.3940316511710953, 614], "2009-05-22": [0.8558894853414151, 1.3980312661950305, 615], "2009-06-02": [0.8546097510205436, 1.3972552457964462, 616], "2009-06-03": [0.8537766383585478, 1.3962740107077558, 617], "2009-06-15": [0.854293816224116, 1.3952012888319119, 618], "2009-06-17": [0.8560928323242185, 1.3947903741678311, 619], "2009-06-19": [0.8605274972205583, 1.3980308968912198, 620], "2009-06-22": [0.8619414080583041, 1.3973472915295764, 621], "2009-06-24": [0.8578155044913691, 1.400008413806669, 622], "2009-06-29": [0.8596924154729806, 1.3996667805705252, 623], "2009-07-01": [0.858304317689548, 1.398972787261743, 624], "2009-07-02": [0.8586078229824118, 1.3978719589501283, 625], "2009-07-13": [0.8609077473419546, 1.3979380752331627, 626], "2009-07-14": [0.8631861599210476, 1.3979856749621873, 627], "2009-07-15": [0.865168465272465, 1.3977534429143157, 628], "2009-07-23": [0.8621948640620269, 1.3986298602011482, 629], "2009-07-30": [0.8612656497670239, 1.3977122348750135, 630], "2009-08-03": [0.8612974979012201, 1.3966027280408229, 631], "2009-08-11": [0.8621186892007064, 1.3956483255202807, 632], "2009-08-17": [0.8628444048774186, 1.3946632604842746, 633], "2009-08-18": [0.8630939857616498, 1.3935753647811724, 634], "2009-08-20": [0.8603974516397067, 1.3941328475028458, 635], "2009-08-21": [0.8626712180960515, 1.394214376575833, 636], "2009-09-01": [0.8649981454295148, 1.394355220114532, 637], "2009-09-04": [0.8655158217399977, 1.393321677076825, 638], "2009-09-07": [0.8682805442646041, 1.3939823360303667, 639], "2009-09-16": [0.8683148292625654, 1.3928914260003897, 640], "2009-09-24": [0.8668016918984704, 1.392329942744259, 641], "2009-09-28": [0.8669766208497564, 1.3912505183517696, 642], "2009-10-01": [0.8679349690399547, 1.3903789544939016, 643], "2009-10-02": [0.8682348860664042, 1.3893182159841024, 644], "2009-10-06": [0.8689003358776801, 1.3883420016317953, 645], "2009-10-08": [0.8702987066056547, 1.3877205648638846, 646], "2009-10-14": [0.8714033147947706, 1.3869306917072552, 647], "2009-10-19": [0.8730273051478002, 1.3864749086234944, 648], "2009-10-26": [0.8733739710900326, 1.3854328332303665, 649], "2009-10-28": [0.8789448069415952, 1.3916317267955558, 650], "2009-10-29": [0.8795260017933748, 1.3906398952471528, 651], "2009-10-30": [0.8776754841529847, 1.3903745568839774, 652], "2009-11-04": [0.8801596276151725, 1.3907573872561443, 653], "2009-11-09": [0.8816104480472954, 1.3901872790680658, 654], "2009-11-16": [0.8811644653071278, 1.3891709301954975, 655], "2009-11-19": [0.8825449012164325, 1.3885602960704104, 656], "2009-11-23": [0.8831988967608733, 1.387602798008372, 657], "2009-11-26": [0.8833328689841459, 1.3865506403949286, 658], "2009-11-30": [0.8840748576622663, 1.385627555295777, 659], "2009-12-01": [0.8844753688503878, 1.38461407685093, 660], "2009-12-08": [0.885670032666121, 1.3839056157411405, 661], "2009-12-16": [0.8861997503866959, 1.3829255550642856, 662], "2009-12-17": [0.8887456301150805, 1.3834346318000774, 663], "2009-12-21": [0.8893719362045411, 1.3824851271001373, 664], "2010-01-04": [0.8893192317741699, 1.3814443754730605, 665], "2010-01-20": [0.8911023690173633, 1.3811721125632255, 666], "2010-01-21": [0.8906322254117337, 1.3801882175805829, 667], "2010-02-04": [0.8921192192620614, 1.379688592880612, 668], "2010-02-05": [0.8932770078155405, 1.3789807028954808, 669], "2010-02-17": [0.8976518817412411, 1.3825949607371566, 670], "2010-02-25": [0.8997619623014503, 1.382643600092535, 671], "2010-03-05": [0.9012393162488476, 1.3821436172894932, 672], "2010-04-01": [0.9010613765451493, 1.3811225681127852, 673], "2010-04-09": [0.9001583324805091, 1.3802952090780596, 674], "2010-04-16": [0.9004446584415192, 1.3792909316543558, 675], "2010-04-20": [0.9003450576240595, 1.3782712887910238, 676], "2010-04-27": [0.901948196387234, 1.3778830015133716, 677], "2010-04-28": [0.9046858304706924, 1.3787090184264128, 678], "2010-04-29": [0.906813210965821, 1.3788067099975994, 679], "2010-05-04": [0.9069793413437605, 1.3777978250224594, 680], "2010-05-06": [0.9080453286464064, 1.3770653686409138, 681], "2010-05-07": [0.9086467411969243, 1.3761435652377565, 682], "2010-05-10": [0.9090803032338086, 1.3751809732880502, 683], "2010-05-12": [0.9104768626348393, 1.3746592016388484, 684], "2010-05-14": [0.9107905380127514, 1.3736784986663486, 685], "2010-05-18": [0.9197302600738301, 1.3925020877876244, 686], "2010-05-19": [0.9194853319660685, 1.3915015833210873, 687], "2010-05-20": [0.9181185609341949, 1.390950549650579, 688], "2010-05-25": [0.9187965565689146, 1.3900532445521914, 689], "2010-05-26": [0.9191191338804647, 1.3890699757674771, 690], "2010-05-27": [0.9230023950638798, 1.3918114395233285, 691], "2010-06-03": [0.9239638283223675, 1.3910339144048025, 692], "2010-06-04": [0.9242159989591289, 1.3900443200705899, 693], "2010-06-09": [0.9238888891217224, 1.3890677699322926, 694], "2010-06-10": [0.9243203476365635, 1.3881132430298586, 695], "2010-06-14": [0.9222815335328821, 1.3881567002299935, 696], "2010-06-24": [0.9217218318411182, 1.387237803248078, 697], "2010-06-29": [0.9220462465383441, 1.3862687931562636, 698], "2010-07-01": [0.9226174877507746, 1.3853577340483378, 699], "2010-07-06": [0.9227374540920695, 1.3843700610915826, 700], "2010-07-07": [0.9208921185458399, 1.3842433768552067, 701], "2010-07-13": [0.9213727738671871, 1.3833143120104805, 702], "2010-07-16": [0.9221579995022313, 1.3824854698225826, 703], "2010-07-22": [0.9217139802542493, 1.3815520770621856, 704], "2010-08-02": [0.9218903970823772, 1.3805784589698866, 705], "2010-08-09": [0.920630186163865, 1.3800052755611891, 706], "2010-08-11": [0.9226268217517894, 1.3800491233913057, 707], "2010-08-19": [0.9231191259662341, 1.3791350004398726, 708], "2010-08-24": [0.9229280605801593, 1.3781700811751236, 709], "2010-09-01": [0.9236791266542018, 1.3773432273576747, 710], "2010-09-20": [0.9234060311202509, 1.3763921888160038, 711], "2010-09-22": [0.923367185113489, 1.3754243118166019, 712], "2010-10-05": [0.9266598926187642, 1.3772673368462292, 713], "2010-10-13": [0.9299946420424253, 1.379182726231116, 714], "2010-11-04": [0.9417341706393246, 1.4135132627134885, 715], "2010-11-16": [0.9430173534511593, 1.4129416995328559, 716], "2010-11-18": [0.9430529823062933, 1.411954985954792, 717], "2010-11-23": [0.9461316465364705, 1.4133795361296964, 718], "2010-11-29": [0.947602574038114, 1.4129455512082152, 719], "2010-12-01": [0.9482884600409887, 1.4120825726349282, 720], "2010-12-02": [0.9518355166357692, 1.4143122428705464, 721], "2010-12-30": [0.9500129893210989, 1.4141792699289673, 722], "2011-01-11": [0.9499617499050902, 1.4132002536630808, 723], "2011-01-12": [0.946594394044289, 1.4151262013816148, 724], "2011-01-19": [0.9473864523452324, 1.4143093727064813, 725], "2011-02-01": [0.9488248584234101, 1.4138649546493003, 726], "2011-02-21": [0.9507602864693708, 1.4138542722060463, 727], "2011-02-25": [0.9524662262187804, 1.413631110582922, 728], "2011-03-15": [0.9524854741302642, 1.4126599720452948, 729], "2011-03-16": [0.9542793956376984, 1.412522562477968, 730], "2011-03-17": [0.9514203688791868, 1.4136697033960253, 731], "2011-03-21": [0.9502474669632981, 1.4130587983913812, 732], "2011-04-01": [0.9516253965043358, 1.412585971566206, 733], "2011-04-12": [0.9514231562769128, 1.4116327115402074, 734], "2011-04-18": [0.9535967838322831, 1.4119010855749372, 735], "2011-04-20": [0.9536468377696059, 1.4109409351855486, 736], "2011-05-04": [0.9520866469089647, 1.410618125305028, 737], "2011-05-06": [0.9483567054663127, 1.41329790558241, 738], "2011-05-23": [0.9505352733363176, 1.413581218653441, 739], "2011-06-03": [0.9493144997365464, 1.4130147680443315, 740], "2011-06-10": [0.9503229572399776, 1.4123265200088275, 741], "2011-06-21": [0.9528861507321288, 1.413099165972823, 742], "2011-06-23": [0.953510010713744, 1.4122490070528702, 743], "2011-06-29": [0.9552008576941148, 1.4120517023613401, 744], "2011-07-11": [0.9567372959871165, 1.4117254439899136, 745], "2011-07-18": [0.9585991697868442, 1.4116939001199587, 746], "2011-07-20": [0.9589120745709133, 1.4107733288854765, 747], "2011-08-02": [0.9587283138674462, 1.4098376778827468, 748], "2011-08-03": [0.9584086154494084, 1.4089221253521826, 749], "2011-08-04": [0.9590056451801838, 1.4080762075367728, 750], "2011-08-05": [0.9605305977065112, 1.4077576035639225, 751], "2011-08-08": [0.9616395942975112, 1.4071487051480929, 752], "2011-08-09": [0.9621641450366791, 1.4062864574877838, 753], "2011-08-10": [0.9597566663651137, 1.4069063221928477, 754], "2011-08-11": [0.9600346947648571, 1.4059938055317394, 755], "2011-08-12": [0.959854102062921, 1.4050711492349464, 756], "2011-08-18": [0.9604780338363503, 1.4042464950814144, 757], "2011-08-19": [0.9577681300796855, 1.4053005916106571, 758], "2011-08-24": [0.966146478690821, 1.423215970375053, 759], "2011-08-31": [0.9662325228084313, 1.4222800794971175, 760], "2011-09-02": [0.9657390664167675, 1.4214092452215217, 761], "2011-09-05": [0.9655133748366111, 1.4204886915625397, 762], "2011-09-07": [0.9665612244080242, 1.4198513557215924, 763], "2011-09-09": [0.9681867728656615, 1.4196318181347478, 764], "2011-09-12": [0.9643079175818372, 1.4227531135129952, 765], "2011-09-14": [0.9642759228988592, 1.4218231811740196, 766], "2011-09-15": [0.9654749670629184, 1.4212827796846492, 767], "2011-09-19": [0.9660154890007441, 1.420434942499523, 768], "2011-09-20": [0.9660504464203951, 1.4195102099481864, 769], "2011-09-21": [0.9657394623182539, 1.4186131980236185, 770], "2011-09-22": [0.9657213263167914, 1.4176918107831, 771], "2011-09-26": [0.9633451555058231, 1.418309598731448, 772], "2011-09-27": [0.9636592792404766, 1.4174176132723346, 773], "2011-10-04": [0.9629098556104885, 1.4166539229459931, 774], "2011-10-05": [0.9631179569892288, 1.41575032928199, 775], "2011-10-06": [0.9613039105108075, 1.415738807635143, 776], "2011-10-10": [0.9617351523284953, 1.4148773755445552, 777], "2011-10-12": [0.9558514009687056, 1.4234587400661645, 778], "2011-10-20": [0.9586488645033467, 1.4246847615229719, 779], "2011-10-21": [0.9592878693089201, 1.4238818808991964, 780], "2011-10-24": [0.958757945417957, 1.4230459054779936, 781], "2011-10-27": [0.9588203263484342, 1.422135642643286, 782], "2011-10-31": [0.9589114029914465, 1.4212283428525136, 783], "2011-11-01": [0.9611048823630846, 1.4216477839408244, 784], "2011-11-03": [0.9613418507801937, 1.420756344784686, 785], "2011-11-09": [0.9614322390626858, 1.4198533774370348, 786], "2011-11-11": [0.9623959789279823, 1.4192074231995633, 787], "2011-11-17": [0.9629537036983028, 1.418391887862814, 788], "2011-11-21": [0.9628047083695278, 1.417497785624146, 789], "2011-11-23": [0.9672840986746586, 1.4221830513671254, 790], "2011-11-28": [0.9679732045620985, 1.421414785453401, 791], "2011-11-30": [0.9677348373558157, 1.4205318484546743, 792], "2011-12-08": [0.9691946241936906, 1.420229816133269, 793], "2011-12-12": [0.9702926673268867, 1.4196712588658382, 794], "2011-12-14": [0.9710370279577167, 1.4189322042293808, 795], "2011-12-20": [0.9720106732376675, 1.4183055584900996, 796], "2012-01-03": [0.971765221010008, 1.4174313210872387, 797], "2012-01-10": [0.9712006257803919, 1.4166315978704462, 798], "2012-02-01": [0.9732228285543197, 1.4168971714857272, 799], "2012-02-03": [0.9776702385544286, 1.4215866211177797, 800], "2012-03-06": [0.9772676616903275, 1.420743538525771, 801], "2012-03-08": [0.973693396797328, 1.4234598899712787, 802], "2012-03-13": [0.9735029462311977, 1.4225824063780237, 803], "2012-03-29": [0.9747159250153687, 1.4221123082219285, 804], "2012-04-02": [0.9725581776276508, 1.422545594510346, 805], "2012-04-04": [0.9746821793013621, 1.4229400232427938, 806], "2012-04-10": [0.9759901301978967, 1.422542360089562, 807], "2012-04-13": [0.9785394219966501, 1.4235063316582632, 808], "2012-04-17": [0.9787140340367503, 1.4226338454295957, 809], "2012-04-23": [0.9792409621505885, 1.4218334089300688, 810], "2012-05-04": [0.9815606651989817, 1.4224902237505654, 811], "2012-05-08": [0.9855961009743752, 1.4262561501559345, 812], "2012-05-14": [0.988193487088518, 1.4273003399423096, 813], "2012-05-18": [0.989232805367894, 1.426730445734224, 814], "2012-05-22": [0.9870822636968594, 1.4271749413223733, 815], "2012-05-23": [0.989221101678727, 1.4276071005955822, 816], "2012-05-30": [0.9907539768150767, 1.4274046793329827, 817], "2012-06-01": [0.9872882047594523, 1.4299705336445294, 818], "2012-06-06": [0.9898673837511703, 1.431001074388952, 819], "2012-06-19": [0.9873295700001444, 1.4319724024390874, 820], "2012-06-25": [0.9878484765435135, 1.4311762164404422, 821], "2012-06-27": [0.9877714072662087, 1.430306052150498, 822], "2012-06-29": [0.9889409461788731, 1.429829479993958, 823], "2012-07-02": [0.9858758966074066, 1.4316666288045252, 824], "2012-07-13": [0.9893208179608449, 1.434214958375993, 825], "2012-07-20": [0.9893412947902935, 1.4333455944450166, 826], "2012-07-23": [0.9883549390441041, 1.4327584988574373, 827], "2012-07-26": [0.9888675325065049, 1.43196796527428, 828], "2012-07-27": [0.9876746886795973, 1.4315150470304496, 829], "2012-07-30": [0.987136018205038, 1.4307355559605188, 830], "2012-08-03": [0.9866239348724417, 1.429949605235394, 831], "2012-09-06": [0.9879887511023823, 1.4296310931894165, 832], "2012-09-14": [0.9939091621096656, 1.4389531691677893, 833], "2012-09-26": [0.9942697566564311, 1.43812689600727, 834], "2012-10-01": [0.9957651128052573, 1.4379138490570489, 835], "2012-10-16": [0.9971377228759167, 1.437600482393868, 836], "2012-10-23": [0.998598468436513, 1.4373618178603127, 837], "2012-11-01": [1.0018759517939504, 1.43963271538509, 838], "2012-11-07": [1.0015957798419057, 1.4387963763926435, 839], "2012-11-19": [1.0016595090251328, 1.437939859833714, 840], "2013-01-03": [1.0014934880097595, 1.4370917534448753, 841], "2013-02-04": [1.0017126441149027, 1.4362511833391494, 842], "2013-02-21": [1.001595593913824, 1.4354020723830478, 843], "2013-02-22": [1.002053706695378, 1.4346121894391985, 844], "2013-02-26": [1.0047482021460021, 1.4358999167582664, 845], "2013-03-05": [1.0048554180512113, 1.4350534086873017, 846], "2013-04-02": [1.0030447031890906, 1.4351728402852169, 847], "2013-04-05": [1.0035409263567308, 1.4343981688482517, 848], "2013-04-10": [1.0051851759942056, 1.4343525130318817, 849], "2013-04-17": [1.0046493164645047, 1.433592662655799, 850], "2013-04-23": [1.0043804678549442, 1.432770590218381, 851], "2013-05-23": [1.0067640119259498, 1.4336177170849234, 852], "2013-05-28": [1.0065462598398531, 1.432790259546356, 853], "2013-05-29": [1.0067743019279174, 1.4319656666391603, 854], "2013-06-05": [1.0186666422573498, 1.4727679111241705, 855], "2013-06-07": [1.0182564203665094, 1.4719553234788285, 856], "2013-06-20": [1.0210020825730879, 1.4732895067453444, 857], "2013-06-24": [1.0178438431289025, 1.4753329467158913, 858], "2013-06-25": [1.0178885679668286, 1.4744735275966785, 859], "2013-06-26": [1.0186184872919355, 1.4737704849928652, 860], "2013-07-04": [1.018269218967506, 1.4729490465284791, 861], "2013-07-05": [1.0171400573882785, 1.472466676233247, 862], "2013-07-08": [1.018680502694641, 1.4723079577991942, 863], "2013-08-02": [1.0247144989066757, 1.4821053894381533, 864], "2013-08-27": [1.0259110798525815, 1.4816654461562049, 865], "2013-09-02": [1.0264533392412052, 1.480894723089457, 866], "2013-09-10": [1.0249188438568249, 1.4807289744194452, 867], "2013-10-10": [1.0238245532189296, 1.480225928390526, 868], "2013-12-03": [1.0237663870072704, 1.4793740116564176, 869], "2013-12-16": [1.0237774339011814, 1.478522609209701, 870], "2013-12-19": [1.0229687723168197, 1.477865354130758, 871], "2013-12-27": [1.0229704442866794, 1.4770167385471193, 872], "2014-01-24": [1.0233755057290508, 1.4762180980735784, 873], "2014-02-03": [1.0228856165936673, 1.4754434529447609, 874], "2014-02-06": [1.0233609640066137, 1.4746661734590196, 875], "2014-02-11": [1.0231929596139424, 1.473831654373984, 876], "2014-03-03": [1.0239661140345377, 1.4731681270360655, 877], "2014-03-04": [1.0237437538488563, 1.4723427393932231, 878], "2014-03-07": [1.0224934734165825, 1.471970850041707, 879], "2014-03-25": [1.0214173058512546, 1.4714796585377599, 880], "2014-04-07": [1.0202579218491532, 1.4710459157687277, 881], "2014-04-11": [1.0209476660406618, 1.4703535026251489, 882], "2014-04-16": [1.0212600948430772, 1.4695490585139839, 883], "2014-04-22": [1.0219685270930847, 1.4688677169250057, 884], "2014-07-08": [1.021529004921474, 1.4680949019623175, 885], "2014-07-16": [1.0223050028407967, 1.4674470334654879, 886], "2014-07-22": [1.0224401185936685, 1.4666241898987342, 887], "2014-07-31": [1.0261394431167774, 1.469936659562669, 888], "2014-08-04": [1.02217263303816, 1.47386209648652, 889], "2014-08-11": [1.0223689993648817, 1.4730445681974336, 890], "2014-09-23": [1.0220846376861903, 1.4722412513813692, 891], "2014-10-02": [1.0228727089063134, 1.4716030819838222, 892], "2014-10-07": [1.0218533850388218, 1.4710933541330378, 893], "2014-10-10": [1.0239202740486255, 1.4715676776031752, 894], "2014-10-15": [1.0246587128732674, 1.47091032823965, 895], "2014-10-17": [1.0257349247787286, 1.4704412823934867, 896], "2014-10-21": [1.024814120804003, 1.4698792284966202, 897], "2014-10-31": [1.025484339841797, 1.4691969534084177, 898], "2014-11-05": [1.025739683744189, 1.4683986461900804, 899], "2014-11-21": [1.024918162340684, 1.4677886615987443, 900], "2014-12-04": [1.022888085994747, 1.4682380541224216, 901], "2014-12-05": [1.0226491152672499, 1.4674405966743636, 902], "2014-12-09": [1.0217700966280128, 1.4668647817105687, 903], "2014-12-12": [1.0226773716947406, 1.4663061028322737, 904], "2014-12-15": [1.021973486114123, 1.4656478417530296, 905], "2014-12-16": [1.0226161741154345, 1.464965596923578, 906], "2014-12-18": [1.0218386158275585, 1.464344146381553, 907], "2015-01-05": [1.0192188878385116, 1.4656640775944438, 908], "2015-01-08": [1.018797434957133, 1.4649118812855972, 909], "2015-01-09": [1.0185124382500397, 1.4641311189206394, 910], "2015-01-13": [1.0175355254354763, 1.4636234699829596, 911], "2015-01-14": [1.0166485883185694, 1.463065145011679, 912], "2015-01-15": [1.0146686297062852, 1.4634861424927297, 913], "2015-01-22": [1.013404973026192, 1.4631832785706855, 914], "2015-01-23": [1.013617159145512, 1.46239671619049, 915], "2015-03-11": [1.0138586886138596, 1.461615653803361, 916], "2015-04-07": [1.0128168569465736, 1.461158244662606, 917], "2015-04-17": [1.0120381986682507, 1.4605518755441855, 918], "2015-04-28": [1.0133956241815436, 1.4603360483613455, 919], "2015-04-29": [1.0121977618878049, 1.4599934632482126, 920], "2015-05-05": [1.0151916834733714, 1.4620257937748384, 921], "2015-05-08": [1.0138165237710737, 1.4618283465812663, 922], "2015-05-12": [1.0155751081564552, 1.462011927997303, 923], "2015-05-19": [1.0150996128579826, 1.4612912081463212, 924], "2015-05-27": [1.0144219613372076, 1.4606456644470516, 925], "2015-05-29": [1.0137132500644501, 1.4600152018194668, 926], "2015-06-10": [1.0130473235791315, 1.4593674942954915, 927], "2015-06-15": [1.0137475547306423, 1.458736108783744, 928], "2015-06-22": [1.0144885962504018, 1.4581248852216802, 929], "2015-06-29": [1.0149242261094842, 1.4574004425429603, 930], "2015-06-30": [1.0147492708484498, 1.4566264651575445, 931], "2015-07-01": [1.0144299424760224, 1.4558766029723356, 932], "2015-07-06": [1.0163610168235184, 1.4562903766364232, 933], "2015-07-07": [1.0182450155964324, 1.45664812868118, 934], "2015-07-09": [1.0200508673741397, 1.4569149391662282, 935], "2015-07-10": [1.0204878538252922, 1.4561970039177594, 936], "2015-07-13": [1.0212838614330426, 1.4556228639067863, 937], "2015-07-16": [1.0205595786037907, 1.4550150114094185, 938], "2015-07-27": [1.0206704696645035, 1.454243180244223, 939], "2015-08-05": [1.0202976034730087, 1.4535135729748114, 940], "2015-08-12": [1.0202765085209557, 1.4527403658455025, 941], "2015-08-19": [1.0192669994434822, 1.4522987958181144, 942], "2015-08-20": [1.019064765198142, 1.4515410169631573, 943], "2015-08-21": [1.01978134101537, 1.4509382212474242, 944], "2015-08-24": [1.0194976694212419, 1.4501957308815925, 945], "2015-08-25": [1.0195753592738344, 1.4494301981229922, 946], "2015-08-26": [1.01561208085242, 1.4537889131875994, 947], "2015-08-27": [1.0148068356171476, 1.4532326445726198, 948], "2015-09-01": [1.016350936940623, 1.453244660934934, 949], "2015-09-03": [1.0184917150204018, 1.453976757898445, 950], "2015-09-04": [1.018097637833401, 1.453262118709189, 951], "2015-09-09": [1.019382254079572, 1.4530385485726665, 952], "2015-09-16": [1.0193226493359564, 1.4522763632315416, 953], "2015-09-18": [1.020357394371546, 1.451866025836304, 954], "2015-09-22": [1.0205057099896733, 1.4511121287307631, 955], "2015-09-24": [1.0200105851036265, 1.4504329778176626, 956], "2015-09-25": [1.020524470406882, 1.4497613474232385, 957], "2015-09-28": [1.0208467518675484, 1.4490380329415788, 958], "2015-09-30": [1.0210646051062247, 1.448297265659619, 959], "2015-10-05": [1.021832208059628, 1.4477373289213593, 960], "2015-10-15": [1.0244583436078853, 1.44927144462103, 961], "2015-10-22": [1.0239785062600395, 1.4485936585622061, 962], "2015-10-23": [1.0251709989548263, 1.4483133975478177, 963], "2015-11-12": [1.026396334282704, 1.4480610784110284, 964], "2015-11-17": [1.0261077645427548, 1.4473375753860909, 965], "2015-11-24": [1.0270360858250207, 1.4468751757634082, 966], "2015-11-25": [1.026537112487898, 1.4462093217358156, 967], "2015-12-03": [1.0260685228396698, 1.4455348681682973, 968], "2015-12-08": [1.0269544625693108, 1.445051198036031, 969], "2015-12-11": [1.027855906712469, 1.444578212206698, 970], "2015-12-14": [1.0264919450444057, 1.444458827607507, 971], "2015-12-15": [1.0265970372903757, 1.443718554285368, 972], "2015-12-17": [1.0299784196722646, 1.4468254677529397, 973], "2015-12-23": [1.0296473489648297, 1.4461187021278443, 974], "2015-12-29": [1.0297139461844216, 1.445377646666417, 975], "2016-01-04": [1.029495328959006, 1.444652381819972, 976], "2016-01-06": [1.029998025441622, 1.443997595283588, 977], "2016-01-07": [1.0307535719939875, 1.4434518111252639, 978], "2016-01-08": [1.0302507029788721, 1.4427994578043815, 979], "2016-01-14": [1.0311866299024641, 1.4423600079047885, 980], "2016-01-15": [1.0316181514256353, 1.4416872773380163, 981], "2016-01-19": [1.0332069235520938, 1.4418121407172884, 982], "2016-01-20": [1.0332797519845058, 1.441079642489872, 983], "2016-01-21": [1.0339477806541448, 1.4404988833531105, 984], "2016-01-22": [1.0333783569853214, 1.4398776458900784, 985], "2016-01-28": [1.0329810402859068, 1.4392006342798793, 986], "2016-01-29": [1.0336030971455685, 1.4386033788552033, 987], "2016-02-02": [1.03338053366984, 1.437891436498977, 988], "2016-02-03": [1.0340704535689638, 1.437327343799922, 989], "2016-02-08": [1.034418260851873, 1.4366421843258177, 990], "2016-02-09": [1.034570005952811, 1.4359243700378606, 991], "2016-02-10": [1.03531321243899, 1.4353905842202315, 992], "2016-02-11": [1.033018440840139, 1.4364881768738285, 993], "2016-02-12": [1.0317757684995688, 1.4362991355712007, 994], "2016-02-15": [1.031997954635848, 1.4355935772479544, 995], "2016-02-17": [1.0321113629440948, 1.4348764558973066, 996], "2016-02-22": [1.0324836105658286, 1.4342041198085227, 997], "2016-02-24": [1.0346784132071973, 1.4351605661887468, 998], "2016-02-25": [1.0358496507454766, 1.4349189743115147, 999], "2016-02-26": [1.0344366423255904, 1.4348965126856792, 1000], "2016-03-01": [1.0345297017854145, 1.4341819071646844, 1001], "2016-03-10": [1.0344460691203157, 1.4334677981489956, 1002], "2016-03-11": [1.0338222929152108, 1.432888503653742, 1003], "2016-03-24": [1.033458823199672, 1.4322203301864358, 1004], "2016-03-30": [1.0337850042618966, 1.4315442422474751, 1005], "2016-04-01": [1.0330081335532852, 1.4310440047312927, 1006], "2016-04-05": [1.0339403115543864, 1.4306384270974453, 1007], "2016-04-13": [1.0334423624225912, 1.430015296154221, 1008], "2016-04-19": [1.0317466047518158, 1.4303204213129252, 1009], "2016-04-29": [1.0317723798849496, 1.4296116991105492, 1010], "2016-05-03": [1.032282502800411, 1.4289958516498114, 1011], "2016-05-20": [1.032192942265483, 1.4282917944713724, 1012], "2016-05-24": [1.0313412144766492, 1.4278433014807863, 1013], "2016-05-25": [1.030608931338681, 1.4273288571573164, 1014], "2016-06-10": [1.0306407844971857, 1.4266252334115452, 1015], "2016-06-13": [1.0309660228088462, 1.4259599739179563, 1016], "2016-06-14": [1.0325814320701843, 1.4261887729880995, 1017], "2016-06-17": [1.0339271997876704, 1.4261339672011881, 1018], "2016-06-20": [1.0340411628821695, 1.4254379785844855, 1019], "2016-06-23": [1.0345516077938197, 1.42483164205946, 1020], "2016-06-24": [1.034714561604255, 1.4241425424976244, 1021], "2016-06-27": [1.0347385252887282, 1.4234451524565737, 1022], "2016-06-28": [1.034831740914986, 1.4227517041632387, 1023], "2016-06-29": [1.0337093536384434, 1.4225096438828855, 1024], "2016-07-05": [1.036452268267224, 1.4245242188186762, 1025], "2016-07-06": [1.0346809209064536, 1.4249592015400665, 1026], "2016-07-08": [1.0355569179682331, 1.4245412463595875, 1027], "2016-07-11": [1.0365114419372308, 1.4241764017047318, 1028], "2016-08-02": [1.0362690331498274, 1.4235047789894693, 1029], "2016-09-02": [1.0361890976292107, 1.4228152303769046, 1030], "2016-09-22": [1.0358252531569951, 1.4221723617335782, 1031], "2016-09-26": [1.035366768538163, 1.4215587928779887, 1032], "2016-10-14": [1.0447307581393925, 1.4523942704297488, 1033], "2016-10-18": [1.0447702721543715, 1.4516916580735149, 1034], "2016-11-07": [1.0453535116732233, 1.4511108267512105, 1035], "2016-11-09": [1.0455358924231577, 1.4504215170395376, 1036], "2016-12-08": [1.0444589153707888, 1.4501361149763095, 1037], "2017-01-25": [1.0471763812770378, 1.4520785532176643, 1038], "2017-03-01": [1.0448738261914976, 1.453275373806698, 1039], "2017-04-24": [1.0451841892423177, 1.4526103254520164, 1040], "2017-06-29": [1.0449103927881376, 1.4519386611332192, 1041], "2017-07-12": [1.0445885054381991, 1.4512783130531053, 1042], "2018-02-02": [1.0444897894042424, 1.4505852585251546, 1043], "2018-02-05": [1.0449575000875824, 1.4499684559749293, 1044], "2018-02-06": [1.0465331922495942, 1.450168698498461, 1045], "2018-02-07": [1.0471793549405572, 1.4496253159440704, 1046], "2018-02-08": [1.0494913618784378, 1.4508622146180619, 1047], "2018-02-09": [1.050418263734422, 1.4504795912365664, 1048], "2018-03-01": [1.052835435822867, 1.451899627798218, 1049], "2018-03-02": [1.0525288465039642, 1.4512414276160877, 1050], "2018-03-22": [1.0523844681844163, 1.450557747317704, 1051], "2018-04-05": [1.0526493117759337, 1.4498929452926435, 1052], "2018-05-29": [1.0542401569299142, 1.4501228202641436, 1053], "2018-06-14": [1.053931209543638, 1.4494687930850865, 1054], "2018-06-25": [1.0544388050538427, 1.4488748344074527, 1055], "2018-07-11": [1.0546972092819702, 1.4482123457818783, 1056], "2018-08-02": [1.0574289849197827, 1.4502485535823422, 1057], "2018-08-15": [1.0563677903113218, 1.4499732807164487, 1058], "2018-10-10": [1.0586793752406638, 1.4512387932064295, 1059], "2018-10-11": [1.0598031855157755, 1.4510148186915872, 1060], "2018-10-16": [1.0598186728302421, 1.450330303972995, 1061], "2018-10-23": [1.0596519577624046, 1.4496568503386622, 1062], "2018-10-31": [1.058975231750447, 1.449142151390597, 1063], "2018-11-15": [1.0588961846784344, 1.4484626574920099, 1064], "2018-11-26": [1.0581529529491844, 1.4479849872125081, 1065], "2018-12-07": [1.0567014638085241, 1.4480806948368588, 1066], "2018-12-10": [1.0564044874280212, 1.4474338307008663, 1067], "2018-12-11": [1.0564997788303936, 1.446758750664848, 1068], "2018-12-12": [1.0548890937222386, 1.4470398593826859, 1069], "2018-12-21": [1.0528944304153185, 1.4478338215399948, 1070], "2018-12-27": [1.0516220160852388, 1.4477560837486496, 1071], "2019-01-04": [1.051552438511732, 1.4470818291673515, 1072], "2019-01-18": [1.052205427095699, 1.4465648759091203, 1073], "2019-02-05": [1.0517917537633765, 1.4459541980293105, 1074], "2019-02-08": [1.05133148012132, 1.4453596637791553, 1075], "2019-02-15": [1.0502840448780837, 1.4450957558465474, 1076], "2019-05-07": [1.0508977378752786, 1.444564488506446, 1077], "2019-05-09": [1.0508180101961402, 1.4438960628642794, 1078]}