{"2000-01-03": 14.779481, "2000-01-04": 14.779481, "2000-01-05": 14.672073, "2000-01-06": 14.636333, "2000-01-07": 14.636333, "2000-01-10": 14.636333, "2000-01-11": 14.636333, "2000-01-12": 14.689944, "2000-01-13": 14.725874, "2000-01-14": 14.976617, "2000-01-17": 15.209486, "2000-01-18": 15.227361, "2000-01-19": 15.245412, "2000-01-20": 15.352822, "2000-01-21": 15.406621, "2000-01-24": 15.46023, "2000-01-25": 15.585694, "2000-01-26": 15.621615, "2000-01-27": 15.370691, "2000-01-28": 14.815406, "2000-01-31": 14.672073, "2000-02-01": 14.421332, "2000-02-02": 14.564666, "2000-02-03": 15.102076, "2000-02-04": 15.317081, "2000-02-07": 15.746897, "2000-02-08": 15.764952, "2000-02-09": 15.944033, "2000-02-10": 15.961902, "2000-02-11": 15.997825, "2000-02-14": 16.42765, "2000-02-15": 16.42765, "2000-02-16": 16.4457, "2000-02-17": 17.520523, "2000-02-18": 17.68173, "2000-02-21": 18.183401, "2000-02-22": 18.165344, "2000-02-23": 18.774609, "2000-02-24": 20.046379, "2000-02-25": 20.118042, "2000-02-28": 19.491095, "2000-02-29": 18.684891, "2000-03-01": 18.219147, "2000-03-02": 18.111736, "2000-03-03": 18.774609, "2000-03-06": 18.989426, "2000-03-07": 19.168688, "2000-03-08": 18.810347, "2000-03-09": 18.774609, "2000-03-10": 18.792479, "2000-03-13": 19.007483, "2000-03-14": 18.684891, "2000-03-15": 18.326733, "2000-03-16": 17.62793, "2000-03-17": 18.201269, "2000-03-20": 18.237019, "2000-03-21": 17.753391, "2000-03-22": 17.842936, "2000-03-23": 18.255074, "2000-03-24": 18.237019, "2000-03-27": 18.27294, "2000-03-28": 18.452013, "2000-03-29": 18.469887, "2000-03-30": 18.738686, "2000-03-31": 18.864157, "2000-04-03": 18.899883, "2000-04-04": 18.935812, "2000-04-05": 18.97156, "2000-04-06": 19.114889, "2000-04-07": 19.097019, "2000-04-10": 19.114889, "2000-04-11": 18.97156, "2000-04-12": 18.864157, "2000-04-13": 18.738686, "2000-04-14": 18.487944, "2000-04-17": 17.62793, "2000-04-18": 17.914606, "2000-04-19": 17.914606, "2000-04-20": 17.914606, "2000-04-21": 17.914606, "2000-04-24": 17.914606, "2000-04-25": 17.896729, "2000-04-26": 17.87886, "2000-04-27": 17.825064, "2000-04-28": 17.789137, "2000-05-01": 17.789137, "2000-05-02": 17.753391, "2000-05-03": 17.735527, "2000-05-04": 17.735527, "2000-05-05": 17.699602, "2000-05-08": 17.66386, "2000-05-09": 17.538395, "2000-05-10": 17.341263, "2000-05-11": 17.269783, "2000-05-12": 17.269783, "2000-05-15": 17.269783, "2000-05-16": 17.287653, "2000-05-17": 17.269783, "2000-05-18": 17.251726, "2000-05-19": 17.251726, "2000-05-22": 17.251726, "2000-05-23": 17.556261, "2000-05-24": 17.66386, "2000-05-25": 18.398409, "2000-05-26": 18.344604, "2000-05-29": 18.344604, "2000-05-30": 18.308678, "2000-05-31": 18.165344, "2000-06-01": 18.111736, "2000-06-02": 18.111736, "2000-06-05": 17.968399, "2000-06-06": 18.129597, "2000-06-07": 18.57748, "2000-06-08": 18.810347, "2000-06-09": 18.756548, "2000-06-12": 18.684891, "2000-06-13": 18.523676, "2000-06-14": 18.308678, "2000-06-15": 18.129597, "2000-06-16": 18.093678, "2000-06-19": 18.111736, "2000-06-20": 18.434137, "2000-06-21": 18.434137, "2000-06-22": 18.434137, "2000-06-23": 18.434137, "2000-06-26": 18.452013, "2000-06-27": 18.541548, "2000-06-28": 18.720816, "2000-06-29": 18.738686, "2000-06-30": 18.882019, "2000-07-03": 20.691626, "2000-07-04": 20.869293, "2000-07-05": 20.750715, "2000-07-06": 20.671722, "2000-07-07": 20.61264, "2000-07-10": 20.671722, "2000-07-11": 20.829697, "2000-07-12": 20.96797, "2000-07-13": 21.086348, "2000-07-14": 20.90868, "2000-07-17": 20.533661, "2000-07-18": 20.434767, "2000-07-19": 20.158417, "2000-07-20": 20.17812, "2000-07-21": 20.17812, "2000-07-24": 20.119038, "2000-07-25": 19.862387, "2000-07-26": 19.862387, "2000-07-27": 19.803097, "2000-07-28": 19.882082, "2000-07-31": 19.72411, "2000-08-01": 19.526546, "2000-08-02": 19.408169, "2000-08-03": 19.408169, "2000-08-04": 18.97386, "2000-08-07": 18.934261, "2000-08-08": 18.855278, "2000-08-09": 19.131826, "2000-08-10": 19.151522, "2000-08-11": 18.914562, "2000-08-14": 19.072538, "2000-08-15": 19.171213, "2000-08-16": 19.388475, "2000-08-17": 19.388475, "2000-08-18": 19.289795, "2000-08-21": 19.309488, "2000-08-22": 19.348879, "2000-08-23": 19.348879, "2000-08-24": 19.348879, "2000-08-25": 19.348879, "2000-08-28": 19.348879, "2000-08-29": 19.585835, "2000-08-30": 19.743809, "2000-08-31": 20.059742, "2000-09-01": 20.573051, "2000-09-04": 20.750715, "2000-09-05": 20.434767, "2000-09-06": 20.316399, "2000-09-07": 20.079441, "2000-09-08": 19.704414, "2000-09-11": 19.882082, "2000-09-12": 19.941172, "2000-09-13": 19.941172, "2000-09-14": 20.198021, "2000-09-15": 20.395386, "2000-09-18": 20.375696, "2000-09-19": 20.17812, "2000-09-20": 20.237411, "2000-09-21": 19.822792, "2000-09-22": 19.664818, "2000-09-25": 19.862387, "2000-09-26": 20.27701, "2000-09-27": 20.336092, "2000-09-28": 20.336092, "2000-09-29": 20.217718, "2000-10-02": 20.217718, "2000-10-03": 20.217718, "2000-10-04": 20.000458, "2000-10-05": 19.980759, "2000-10-06": 19.980759, "2000-10-09": 19.941172, "2000-10-10": 19.803097, "2000-10-11": 19.625433, "2000-10-12": 19.546448, "2000-10-13": 19.44776, "2000-10-16": 19.467463, "2000-10-17": 19.546448, "2000-10-18": 19.506857, "2000-10-19": 19.487158, "2000-10-20": 19.546448, "2000-10-23": 19.487158, "2000-10-24": 19.21081, "2000-10-25": 19.36878, "2000-10-26": 19.467463, "2000-10-27": 19.467463, "2000-10-30": 19.506857, "2000-10-31": 19.506857, "2000-11-01": 19.487158, "2000-11-02": 20.158417, "2000-11-03": 20.494064, "2000-11-06": 20.592745, "2000-11-07": 21.027266, "2000-11-08": 21.086348, "2000-11-09": 21.30361, "2000-11-10": 21.757618, "2000-11-13": 22.693169, "2000-11-14": 23.581018, "2000-11-15": 24.757881, "2000-11-16": 24.675486, "2000-11-17": 24.510273, "2000-11-20": 24.613478, "2000-11-21": 24.448263, "2000-11-22": 23.704823, "2000-11-23": 23.374609, "2000-11-24": 23.890629, "2000-11-27": 23.973236, "2000-11-28": 24.365656, "2000-11-29": 24.675486, "2000-11-30": 24.448263, "2000-12-01": 24.076647, "2000-12-04": 24.014637, "2000-12-05": 24.097248, "2000-12-06": 24.943905, "2000-12-07": 25.707731, "2000-12-08": 25.831755, "2000-12-11": 26.017565, "2000-12-12": 25.790339, "2000-12-13": 25.790339, "2000-12-14": 25.790339, "2000-12-15": 25.583937, "2000-12-18": 25.521921, "2000-12-19": 25.542744, "2000-12-20": 25.604525, "2000-12-21": 25.521921, "2000-12-22": 25.521921, "2000-12-25": 25.521921, "2000-12-26": 25.521921, "2000-12-27": 25.521921, "2000-12-28": 25.563332, "2000-12-29": 25.439322, "2001-01-01": 25.439322, "2001-01-02": 24.964495, "2001-01-03": 24.716682, "2001-01-04": 24.923092, "2001-01-05": 25.10911, "2001-01-08": 25.521921, "2001-01-09": 26.038151, "2001-01-10": 26.12076, "2001-01-11": 26.533792, "2001-01-12": 26.678402, "2001-01-15": 27.29784, "2001-01-16": 27.380447, "2001-01-17": 27.442228, "2001-01-18": 27.648861, "2001-01-19": 28.578119, "2001-01-22": 28.536709, "2001-01-23": 28.165085, "2001-01-24": 28.598711, "2001-01-25": 28.639915, "2001-01-26": 29.465979, "2001-01-29": 30.70483, "2001-01-30": 31.902517, "2001-01-31": 32.253532, "2001-02-01": 31.985121, "2001-02-02": 32.418739, "2001-02-05": 32.170933, "2001-02-06": 31.737297, "2001-02-07": 31.427475, "2001-02-08": 32.377331, "2001-02-09": 32.976173, "2001-02-12": 32.852371, "2001-02-13": 32.914387, "2001-02-14": 32.76976, "2001-02-15": 33.038181, "2001-02-16": 32.831768, "2001-02-19": 32.831768, "2001-02-20": 33.2654, "2001-02-21": 33.348011, "2001-02-22": 32.831768, "2001-02-23": 32.356743, "2001-02-26": 32.480747, "2001-02-27": 32.480747, "2001-02-28": 32.336132, "2001-03-01": 32.212128, "2001-03-02": 33.14138, "2001-03-05": 33.451218, "2001-03-06": 34.050053, "2001-03-07": 33.699032, "2001-03-08": 33.554401, "2001-03-09": 33.14138, "2001-03-12": 32.996769, "2001-03-13": 32.356743, "2001-03-14": 30.766846, "2001-03-15": 30.415827, "2001-03-16": 30.560225, "2001-03-19": 30.168003, "2001-03-20": 30.477625, "2001-03-21": 31.035259, "2001-03-22": 32.005718, "2001-03-23": 32.976173, "2001-03-26": 34.380257, "2001-03-27": 34.648888, "2001-03-28": 34.40107, "2001-03-29": 34.483681, "2001-03-30": 34.380257, "2001-04-02": 34.483681, "2001-04-03": 35.247498, "2001-04-04": 37.10603, "2001-04-05": 37.395042, "2001-04-06": 36.403976, "2001-04-09": 36.445168, "2001-04-10": 36.403976, "2001-04-11": 36.445168, "2001-04-12": 36.094162, "2001-04-13": 36.094162, "2001-04-16": 36.094162, "2001-04-17": 36.011555, "2001-04-18": 36.383396, "2001-04-19": 37.147213, "2001-04-20": 36.713589, "2001-04-23": 36.03215, "2001-04-24": 35.825748, "2001-04-25": 35.309513, "2001-04-26": 34.648888, "2001-04-27": 34.752087, "2001-04-30": 34.318459, "2001-05-01": 34.277054, "2001-05-02": 35.454121, "2001-05-03": 36.135567, "2001-05-04": 35.887749, "2001-05-07": 35.887749, "2001-05-08": 35.867149, "2001-05-09": 36.755016, "2001-05-10": 36.486591, "2001-05-11": 36.548382, "2001-05-14": 36.548382, "2001-05-15": 36.424587, "2001-05-16": 37.023422, "2001-05-17": 37.126614, "2001-05-18": 38.324291, "2001-05-21": 38.303688, "2001-05-22": 38.365486, "2001-05-23": 37.374439, "2001-05-24": 37.064613, "2001-05-25": 36.65181, "2001-05-28": 36.65181, "2001-05-29": 36.589794, "2001-05-30": 37.271236, "2001-05-31": 39.294762, "2001-06-01": 40.575035, "2001-06-04": 40.843445, "2001-06-05": 39.852398, "2001-06-06": 40.492432, "2001-06-07": 40.637039, "2001-06-08": 40.61623, "2001-06-11": 40.36842, "2001-06-12": 39.439369, "2001-06-13": 40.161991, "2001-06-14": 39.54258, "2001-06-15": 39.336166, "2001-06-18": 40.389233, "2001-06-19": 41.132454, "2001-06-20": 40.88464, "2001-06-21": 40.533619, "2001-06-22": 40.099979, "2001-06-25": 39.934792, "2001-06-26": 39.852398, "2001-06-27": 41.354889, "2001-06-28": 41.398685, "2001-06-29": 42.035278, "2001-07-02": 42.49625, "2001-07-03": 43.220642, "2001-07-04": 42.781567, "2001-07-05": 43.000992, "2001-07-06": 43.023121, "2001-07-09": 42.803459, "2001-07-10": 42.56216, "2001-07-11": 40.586464, "2001-07-12": 40.915825, "2001-07-13": 39.620766, "2001-07-16": 38.720726, "2001-07-17": 39.291397, "2001-07-18": 38.545116, "2001-07-19": 37.030621, "2001-07-20": 37.228153, "2001-07-23": 36.745289, "2001-07-24": 35.976864, "2001-07-25": 35.867165, "2001-07-26": 36.657482, "2001-07-27": 36.964703, "2001-07-30": 37.337852, "2001-07-31": 38.632923, "2001-08-01": 38.852341, "2001-08-02": 39.423237, "2001-08-03": 39.796391, "2001-08-06": 39.511044, "2001-08-07": 39.774258, "2001-08-08": 39.949883, "2001-08-09": 39.972019, "2001-08-10": 39.949883, "2001-08-13": 39.752369, "2001-08-14": 39.818287, "2001-08-15": 39.203594, "2001-08-16": 40.037697, "2001-08-17": 41.354889, "2001-08-20": 41.925568, "2001-08-21": 42.144989, "2001-08-22": 42.584038, "2001-08-23": 41.925568, "2001-08-24": 41.881546, "2001-08-27": 41.881546, "2001-08-28": 42.144989, "2001-08-29": 42.057159, "2001-08-30": 41.047447, "2001-08-31": 40.828026, "2001-09-03": 40.388954, "2001-09-04": 40.520786, "2001-09-05": 40.608379, "2001-09-06": 41.179272, "2001-09-07": 40.608379, "2001-09-10": 39.730473, "2001-09-11": 39.511044, "2001-09-12": 39.247608, "2001-09-13": 40.169529, "2001-09-14": 39.247608, "2001-09-17": 38.720726, "2001-09-18": 37.667198, "2001-09-19": 37.381653, "2001-09-20": 36.701271, "2001-09-21": 37.315956, "2001-09-24": 37.228153, "2001-09-25": 38.413506, "2001-09-26": 38.413506, "2001-09-27": 38.632923, "2001-09-28": 38.413506, "2001-10-01": 38.501312, "2001-10-02": 38.501312, "2001-10-03": 40.608379, "2001-10-04": 41.925568, "2001-10-05": 39.203594, "2001-10-08": 39.949883, "2001-10-09": 38.193863, "2001-10-10": 41.662121, "2001-10-11": 42.671871, "2001-10-12": 43.154716, "2001-10-15": 43.857224, "2001-10-16": 44.998569, "2001-10-17": 45.832684, "2001-10-18": 44.669437, "2001-10-19": 44.340084, "2001-10-22": 44.669437, "2001-10-23": 46.930233, "2001-10-24": 47.500896, "2001-10-25": 49.608181, "2001-10-26": 50.486309, "2001-10-29": 49.827606, "2001-10-30": 48.510628, "2001-10-31": 48.642475, "2001-11-01": 48.334999, "2001-11-02": 48.818096, "2001-11-05": 49.169109, "2001-11-06": 50.925163, "2001-11-07": 51.583862, "2001-11-08": 53.998363, "2001-11-09": 52.681168, "2001-11-12": 52.900829, "2001-11-13": 54.788456, "2001-11-14": 57.074951, "2001-11-15": 57.074951, "2001-11-16": 60.040932, "2001-11-19": 58.423111, "2001-11-20": 54.962585, "2001-11-21": 55.052475, "2001-11-22": 55.591843, "2001-11-23": 56.400864, "2001-11-26": 57.88377, "2001-11-27": 55.277313, "2001-11-28": 54.445873, "2001-11-29": 54.288494, "2001-11-30": 53.928925, "2001-12-03": 52.535954, "2001-12-04": 51.816807, "2001-12-05": 52.198792, "2001-12-06": 52.086491, "2001-12-07": 52.805622, "2001-12-10": 50.333679, "2001-12-11": 49.435001, "2001-12-12": 50.109062, "2001-12-13": 50.198959, "2001-12-14": 49.861801, "2001-12-17": 49.884464, "2001-12-18": 50.333679, "2001-12-19": 50.962952, "2001-12-20": 50.783138, "2001-12-21": 52.086491, "2001-12-24": 51.32251, "2001-12-25": 51.32251, "2001-12-26": 51.32251, "2001-12-27": 51.682083, "2001-12-28": 52.580776, "2001-12-31": 53.569599, "2002-01-01": 53.569599, "2002-01-02": 52.670658, "2002-01-03": 53.614433, "2002-01-04": 55.591843, "2002-01-07": 55.36721, "2002-01-08": 54.423458, "2002-01-09": 55.052475, "2002-01-10": 54.378407, "2002-01-11": 57.164833, "2002-01-14": 56.490765, "2002-01-15": 58.423111, "2002-01-16": 58.378284, "2002-01-17": 60.310635, "2002-01-18": 59.501568, "2002-01-21": 60.849968, "2002-01-22": 59.591473, "2002-01-23": 60.670189, "2002-01-24": 57.928829, "2002-01-25": 57.749031, "2002-01-28": 58.243324, "2002-01-29": 57.479336, "2002-01-30": 57.703953, "2002-01-31": 57.793827, "2002-02-01": 55.951408, "2002-02-04": 54.063892, "2002-02-05": 50.783138, "2002-02-06": 50.333679, "2002-02-07": 48.760918, "2002-02-08": 50.243782, "2002-02-11": 52.131332, "2002-02-12": 51.816807, "2002-02-13": 52.760567, "2002-02-14": 53.030228, "2002-02-15": 53.434631, "2002-02-18": 51.18755, "2002-02-19": 49.884464, "2002-02-20": 47.232723, "2002-02-21": 47.187893, "2002-02-22": 44.940823, "2002-02-25": 45.794685, "2002-02-26": 46.918224, "2002-02-27": 47.053173, "2002-02-28": 46.603725, "2002-03-01": 46.558659, "2002-03-04": 46.288967, "2002-03-05": 44.940823, "2002-03-06": 44.940823, "2002-03-07": 45.480179, "2002-03-08": 46.154255, "2002-03-11": 46.738422, "2002-03-12": 46.738422, "2002-03-13": 46.6936, "2002-03-14": 46.963287, "2002-03-15": 47.907047, "2002-03-18": 48.805748, "2002-03-19": 48.58112, "2002-03-20": 48.985523, "2002-03-21": 48.760918, "2002-03-22": 48.62595, "2002-03-25": 50.109062, "2002-03-26": 51.457241, "2002-03-27": 52.311096, "2002-03-28": 53.704319, "2002-03-29": 53.704319, "2002-04-01": 53.704319, "2002-04-02": 52.580776, "2002-04-03": 52.805622, "2002-04-04": 52.446045, "2002-04-05": 52.356144, "2002-04-08": 51.816807, "2002-04-09": 51.18755, "2002-04-10": 51.9067, "2002-04-11": 48.311459, "2002-04-12": 48.895622, "2002-04-15": 47.682194, "2002-04-16": 48.22155, "2002-04-17": 47.996948, "2002-04-18": 45.749863, "2002-04-19": 45.614899, "2002-04-22": 44.850929, "2002-04-23": 45.120605, "2002-04-24": 45.165672, "2002-04-25": 45.300388, "2002-04-26": 44.536396, "2002-04-29": 43.817268, "2002-04-30": 43.053295, "2002-05-01": 43.592651, "2002-05-02": 45.704792, "2002-05-03": 44.850929, "2002-05-06": 44.850929, "2002-05-07": 44.401459, "2002-05-08": 45.390282, "2002-05-09": 43.368038, "2002-05-10": 44.266735, "2002-05-13": 43.727375, "2002-05-14": 44.895988, "2002-05-15": 44.536396, "2002-05-16": 44.446522, "2002-05-17": 43.143208, "2002-05-20": 41.974827, "2002-05-21": 41.12096, "2002-05-22": 42.603828, "2002-05-23": 43.143208, "2002-05-24": 43.592651, "2002-05-27": 43.053295, "2002-05-28": 43.143208, "2002-05-29": 42.738804, "2002-05-30": 42.918575, "2002-05-31": 45.390282, "2002-06-03": 45.390282, "2002-06-04": 45.390282, "2002-06-05": 45.210491, "2002-06-06": 45.030708, "2002-06-07": 44.176838, "2002-06-10": 44.042122, "2002-06-11": 43.997051, "2002-06-12": 44.042122, "2002-06-13": 43.457706, "2002-06-14": 42.154613, "2002-06-17": 43.457706, "2002-06-18": 42.963413, "2002-06-19": 43.143208, "2002-06-20": 41.525349, "2002-06-21": 41.795036, "2002-06-24": 41.323162, "2002-06-25": 42.626488, "2002-06-26": 46.273853, "2002-06-27": 48.648037, "2002-06-28": 49.907734, "2002-07-01": 49.907734, "2002-07-02": 49.374809, "2002-07-03": 51.603718, "2002-07-04": 53.299717, "2002-07-05": 52.572937, "2002-07-08": 53.299717, "2002-07-09": 52.887848, "2002-07-10": 53.275528, "2002-07-11": 52.136654, "2002-07-12": 52.282169, "2002-07-15": 49.907734, "2002-07-16": 49.762486, "2002-07-17": 51.603718, "2002-07-18": 52.088341, "2002-07-19": 52.815102, "2002-07-22": 51.773392, "2002-07-23": 51.240463, "2002-07-24": 50.150173, "2002-07-25": 51.603718, "2002-07-26": 51.724812, "2002-07-29": 51.046619, "2002-07-30": 50.150173, "2002-07-31": 51.409878, "2002-08-01": 48.938789, "2002-08-02": 49.811066, "2002-08-05": 48.01815, "2002-08-06": 49.035713, "2002-08-07": 50.901119, "2002-08-08": 50.876934, "2002-08-09": 50.295433, "2002-08-12": 50.901119, "2002-08-13": 50.247097, "2002-08-14": 50.150173, "2002-08-15": 50.004665, "2002-08-16": 49.762486, "2002-08-19": 51.264629, "2002-08-20": 51.119118, "2002-08-21": 50.683094, "2002-08-22": 50.973877, "2002-08-23": 51.385723, "2002-08-26": 51.385723, "2002-08-27": 52.039745, "2002-08-28": 50.392326, "2002-08-29": 50.876934, "2002-08-30": 51.312969, "2002-09-02": 50.949703, "2002-09-03": 51.119118, "2002-09-04": 51.191864, "2002-09-05": 51.700645, "2002-09-06": 51.216026, "2002-09-09": 50.683094, "2002-09-10": 52.088341, "2002-09-11": 51.846161, "2002-09-12": 50.876934, "2002-09-13": 50.731686, "2002-09-16": 51.191864, "2002-09-17": 50.416519, "2002-09-18": 48.793537, "2002-09-19": 47.727402, "2002-09-20": 47.485233, "2002-09-23": 47.048965, "2002-09-24": 49.326485, "2002-09-25": 50.634769, "2002-09-26": 51.264629, "2002-09-27": 49.762486, "2002-09-30": 48.163422, "2002-10-01": 46.903713, "2002-10-02": 48.502769, "2002-10-03": 47.582157, "2002-10-04": 47.000622, "2002-10-07": 46.467686, "2002-10-08": 45.595413, "2002-10-09": 43.366486, "2002-10-10": 43.366486, "2002-10-11": 45.207722, "2002-10-14": 45.110802, "2002-10-15": 45.159389, "2002-10-16": 42.688301, "2002-10-17": 46.419098, "2002-10-18": 45.837582, "2002-10-21": 47.969578, "2002-10-22": 49.277889, "2002-10-23": 48.163422, "2002-10-24": 48.502769, "2002-10-25": 48.212002, "2002-10-28": 47.969578, "2002-10-29": 46.031429, "2002-10-30": 46.080025, "2002-10-31": 46.128345, "2002-11-01": 47.485233, "2002-11-04": 49.907734, "2002-11-05": 49.714172, "2002-11-06": 49.714172, "2002-11-07": 46.031429, "2002-11-08": 46.322197, "2002-11-11": 47.388302, "2002-11-12": 47.630482, "2002-11-13": 49.656155, "2002-11-14": 50.216579, "2002-11-15": 48.892262, "2002-11-18": 48.841442, "2002-11-19": 48.739574, "2002-11-20": 48.026474, "2002-11-21": 48.637714, "2002-11-22": 47.771942, "2002-11-25": 47.618996, "2002-11-26": 47.109638, "2002-11-27": 47.058834, "2002-11-28": 46.498672, "2002-11-29": 45.479969, "2002-12-02": 44.716049, "2002-12-03": 45.378086, "2002-12-04": 45.378086, "2002-12-05": 45.123543, "2002-12-06": 44.308567, "2002-12-09": 43.239052, "2002-12-10": 43.442791, "2002-12-11": 43.850277, "2002-12-12": 44.308567, "2002-12-13": 43.49387, "2002-12-16": 44.054012, "2002-12-17": 43.391991, "2002-12-18": 43.137165, "2002-12-19": 43.239052, "2002-12-20": 44.817924, "2002-12-23": 44.76712, "2002-12-24": 44.665245, "2002-12-25": 44.665245, "2002-12-26": 44.665245, "2002-12-27": 44.206696, "2002-12-30": 45.32729, "2002-12-31": 45.174339, "2003-01-01": 45.174339, "2003-01-02": 45.021656, "2003-01-03": 45.505367, "2003-01-06": 44.308567, "2003-01-07": 44.054012, "2003-01-08": 43.799469, "2003-01-09": 44.155891, "2003-01-10": 44.155891, "2003-01-13": 44.155891, "2003-01-14": 44.054012, "2003-01-15": 43.824871, "2003-01-16": 44.054012, "2003-01-17": 43.137165, "2003-01-20": 42.882618, "2003-01-21": 42.016842, "2003-01-22": 41.151073, "2003-01-23": 42.271397, "2003-01-24": 43.340912, "2003-01-27": 42.169518, "2003-01-28": 42.933426, "2003-01-29": 43.188244, "2003-01-30": 44.232349, "2003-01-31": 43.290123, "2003-02-03": 44.359646, "2003-02-04": 43.417381, "2003-02-05": 43.49387, "2003-02-06": 43.290123, "2003-02-07": 42.780754, "2003-02-10": 42.780754, "2003-02-11": 42.780754, "2003-02-12": 42.602413, "2003-02-13": 42.780754, "2003-02-14": 42.780754, "2003-02-17": 43.519257, "2003-02-18": 43.901073, "2003-02-19": 43.544651, "2003-02-20": 43.519257, "2003-02-21": 43.442791, "2003-02-24": 43.391991, "2003-02-25": 42.577019, "2003-02-26": 43.290123, "2003-02-27": 43.442791, "2003-02-28": 43.544651, "2003-03-03": 44.181305, "2003-03-04": 44.104813, "2003-03-05": 43.69759, "2003-03-06": 43.799469, "2003-03-07": 43.799469, "2003-03-10": 44.843319, "2003-03-11": 44.945183, "2003-03-12": 44.665245, "2003-03-13": 46.473259, "2003-03-14": 45.938499, "2003-03-17": 45.836628, "2003-03-18": 45.32729, "2003-03-19": 45.73476, "2003-03-20": 44.868992, "2003-03-21": 45.683693, "2003-03-24": 45.32729, "2003-03-25": 45.760162, "2003-03-26": 46.804283, "2003-03-27": 49.376217, "2003-03-28": 49.656155, "2003-03-31": 49.478081, "2003-04-01": 48.739574, "2003-04-02": 49.147064, "2003-04-03": 49.299744, "2003-04-04": 49.376217, "2003-04-07": 50.852951, "2003-04-08": 50.521935, "2003-04-09": 50.445732, "2003-04-10": 51.566071, "2003-04-11": 51.107765, "2003-04-14": 52.126213, "2003-04-15": 52.737438, "2003-04-16": 53.170341, "2003-04-17": 53.934246, "2003-04-18": 53.934246, "2003-04-21": 53.934246, "2003-04-22": 54.901894, "2003-04-23": 54.290916, "2003-04-24": 54.189041, "2003-04-25": 53.730488, "2003-04-28": 53.374073, "2003-04-29": 52.43182, "2003-04-30": 53.730488, "2003-05-01": 53.475941, "2003-05-02": 53.781559, "2003-05-05": 53.781559, "2003-05-06": 54.189041, "2003-05-07": 54.239841, "2003-05-08": 53.603222, "2003-05-09": 54.800007, "2003-05-12": 54.851063, "2003-05-13": 56.277016, "2003-05-14": 57.321129, "2003-05-15": 58.721664, "2003-05-16": 59.587437, "2003-05-19": 58.161522, "2003-05-20": 59.460171, "2003-05-21": 56.811783, "2003-05-22": 60.351341, "2003-05-23": 60.809902, "2003-05-26": 60.809902, "2003-05-27": 61.370079, "2003-05-28": 63.992798, "2003-05-29": 62.694115, "2003-05-30": 63.610973, "2003-06-02": 62.821396, "2003-06-03": 62.261227, "2003-06-04": 62.235832, "2003-06-05": 62.032097, "2003-06-06": 63.763641, "2003-06-09": 63.636364, "2003-06-10": 62.745197, "2003-06-11": 64.018463, "2003-06-12": 64.37487, "2003-06-13": 64.909637, "2003-06-16": 64.833153, "2003-06-17": 65.036926, "2003-06-18": 64.578629, "2003-06-19": 63.356167, "2003-06-20": 62.821396, "2003-06-23": 62.745197, "2003-06-24": 63.763641, "2003-06-25": 66.57988, "2003-06-26": 66.309059, "2003-06-27": 65.55143, "2003-06-30": 64.73951, "2003-07-01": 65.388878, "2003-07-02": 66.471611, "2003-07-03": 67.175255, "2003-07-04": 68.095436, "2003-07-07": 69.069908, "2003-07-08": 69.015625, "2003-07-09": 69.773537, "2003-07-10": 69.069908, "2003-07-11": 69.556999, "2003-07-14": 69.66526, "2003-07-15": 71.126816, "2003-07-16": 69.556999, "2003-07-17": 68.907333, "2003-07-18": 67.987167, "2003-07-21": 67.662346, "2003-07-22": 68.311996, "2003-07-23": 68.690781, "2003-07-24": 67.662346, "2003-07-25": 67.55407, "2003-07-28": 67.337517, "2003-07-29": 67.55407, "2003-07-30": 67.175255, "2003-07-31": 67.012978, "2003-08-01": 65.605415, "2003-08-04": 66.309059, "2003-08-05": 64.955788, "2003-08-06": 65.010056, "2003-08-07": 63.710785, "2003-08-08": 65.930244, "2003-08-11": 67.337517, "2003-08-12": 67.716614, "2003-08-13": 67.608337, "2003-08-14": 67.066986, "2003-08-15": 67.337517, "2003-08-18": 66.904701, "2003-08-19": 65.334877, "2003-08-20": 66.146782, "2003-08-21": 66.74218, "2003-08-22": 66.52562, "2003-08-25": 66.52562, "2003-08-26": 65.388878, "2003-08-27": 65.497162, "2003-08-28": 66.417343, "2003-08-29": 66.471611, "2003-09-01": 66.904701, "2003-09-02": 67.283524, "2003-09-03": 67.662346, "2003-09-04": 67.066986, "2003-09-05": 66.958687, "2003-09-08": 66.092514, "2003-09-09": 66.74218, "2003-09-10": 68.203728, "2003-09-11": 68.203728, "2003-09-12": 68.85334, "2003-09-15": 69.66526, "2003-09-16": 70.693695, "2003-09-17": 71.235092, "2003-09-18": 71.66787, "2003-09-19": 70.098343, "2003-09-22": 71.07254, "2003-09-23": 69.773537, "2003-09-24": 70.693695, "2003-09-25": 70.423157, "2003-09-26": 70.368904, "2003-09-29": 70.368904, "2003-09-30": 70.585434, "2003-10-01": 73.183708, "2003-10-02": 73.725082, "2003-10-03": 74.590988, "2003-10-06": 74.049622, "2003-10-07": 73.183708, "2003-10-08": 72.696625, "2003-10-09": 74.645248, "2003-10-10": 75.024078, "2003-10-13": 75.024078, "2003-10-14": 74.374451, "2003-10-15": 76.160774, "2003-10-16": 76.323082, "2003-10-17": 76.702194, "2003-10-20": 78.596542, "2003-10-21": 78.975616, "2003-10-22": 78.921333, "2003-10-23": 77.514099, "2003-10-24": 78.325981, "2003-10-27": 78.813065, "2003-10-28": 79.246155, "2003-10-29": 78.867348, "2003-10-30": 78.488281, "2003-10-31": 78.434265, "2003-11-03": 80.112358, "2003-11-04": 81.519615, "2003-11-05": 77.838913, "2003-11-06": 77.459793, "2003-11-07": 79.570999, "2003-11-10": 79.462715, "2003-11-11": 78.434265, "2003-11-12": 81.644241, "2003-11-13": 80.458549, "2003-11-14": 81.022964, "2003-11-17": 80.00679, "2003-11-18": 80.627808, "2003-11-19": 80.345612, "2003-11-20": 80.853683, "2003-11-21": 81.474686, "2003-11-24": 81.982773, "2003-11-25": 81.92646, "2003-11-26": 81.192505, "2003-11-27": 81.248833, "2003-11-28": 80.571503, "2003-12-01": 80.684135, "2003-12-02": 82.434532, "2003-12-03": 83.789803, "2003-12-04": 82.886292, "2003-12-05": 82.886292, "2003-12-08": 82.773338, "2003-12-09": 82.999214, "2003-12-10": 82.491135, "2003-12-11": 81.192505, "2003-12-12": 81.135864, "2003-12-15": 80.684135, "2003-12-16": 81.305443, "2003-12-17": 81.192505, "2003-12-18": 81.474686, "2003-12-19": 81.869835, "2003-12-22": 82.434532, "2003-12-23": 81.587639, "2003-12-24": 82.095695, "2003-12-25": 82.095695, "2003-12-26": 82.095695, "2003-12-29": 82.434532, "2003-12-30": 82.717003, "2003-12-31": 82.491135, "2004-01-01": 82.491135, "2004-01-02": 82.378189, "2004-01-05": 81.813522, "2004-01-06": 83.394371, "2004-01-07": 84.467102, "2004-01-08": 88.532616, "2004-01-09": 87.629097, "2004-01-12": 87.23394, "2004-01-13": 86.387062, "2004-01-14": 87.459846, "2004-01-15": 87.798355, "2004-01-16": 88.250099, "2004-01-19": 87.967918, "2004-01-20": 86.500015, "2004-01-21": 88.080841, "2004-01-22": 88.588913, "2004-01-23": 88.645523, "2004-01-26": 88.024216, "2004-01-27": 88.419647, "2004-01-28": 90.226379, "2004-01-29": 88.758476, "2004-01-30": 87.685715, "2004-02-02": 88.645523, "2004-02-03": 87.742027, "2004-02-04": 88.871429, "2004-02-05": 89.153603, "2004-02-06": 90.226379, "2004-02-09": 90.565208, "2004-02-10": 88.871429, "2004-02-11": 88.419647, "2004-02-12": 87.967918, "2004-02-13": 87.854973, "2004-02-16": 87.516159, "2004-02-17": 88.193787, "2004-02-18": 89.774597, "2004-02-19": 91.016953, "2004-02-20": 90.339294, "2004-02-23": 90.226379, "2004-02-24": 88.645523, "2004-02-25": 88.137177, "2004-02-26": 88.080841, "2004-02-27": 87.064415, "2004-03-01": 90.452248, "2004-03-02": 90.452248, "2004-03-03": 91.920174, "2004-03-04": 92.258972, "2004-03-05": 93.501289, "2004-03-08": 93.839821, "2004-03-09": 93.162483, "2004-03-10": 92.767052, "2004-03-11": 89.831238, "2004-03-12": 91.412056, "2004-03-15": 90.057106, "2004-03-16": 92.597801, "2004-03-17": 94.009361, "2004-03-18": 94.122284, "2004-03-19": 95.533905, "2004-03-22": 93.275414, "2004-03-23": 92.033104, "2004-03-24": 93.444664, "2004-03-25": 96.945435, "2004-03-26": 95.646828, "2004-03-29": 97.340607, "2004-03-30": 98.131157, "2004-03-31": 98.752159, "2004-04-01": 97.848663, "2004-04-02": 99.260262, "2004-04-05": 100.332993, "2004-04-06": 102.478539, "2004-04-07": 102.196342, "2004-04-08": 103.720871, "2004-04-09": 103.720871, "2004-04-12": 103.720871, "2004-04-13": 104.680702, "2004-04-14": 103.890129, "2004-04-15": 104.793633, "2004-04-16": 104.511139, "2004-04-19": 103.777191, "2004-04-20": 104.11602, "2004-04-21": 101.688293, "2004-04-22": 98.865105, "2004-04-23": 101.066956, "2004-04-26": 100.332993, "2004-04-27": 100.615494, "2004-04-28": 98.582596, "2004-04-29": 97.001785, "2004-04-30": 95.307999, "2004-05-03": 95.307999, "2004-05-04": 95.759781, "2004-05-05": 95.759781, "2004-05-06": 92.202644, "2004-05-07": 94.065666, "2004-05-10": 89.831238, "2004-05-11": 92.541161, "2004-05-12": 92.033104, "2004-05-13": 92.428528, "2004-05-14": 91.807228, "2004-05-17": 90.282684, "2004-05-18": 92.654091, "2004-05-19": 94.461113, "2004-05-20": 92.710739, "2004-05-21": 92.202644, "2004-05-24": 93.105835, "2004-05-25": 91.242828, "2004-05-26": 90.960327, "2004-05-27": 92.258972, "2004-05-28": 92.258972, "2004-05-31": 92.258972, "2004-06-01": 91.412056, "2004-06-02": 90.960327, "2004-06-03": 88.024216, "2004-06-04": 88.476006, "2004-06-07": 89.60537, "2004-06-08": 90.113441, "2004-06-09": 92.033104, "2004-06-10": 92.767052, "2004-06-11": 89.887566, "2004-06-14": 88.645523, "2004-06-15": 89.60537, "2004-06-16": 88.645523, "2004-06-17": 87.911293, "2004-06-18": 87.572762, "2004-06-21": 86.838539, "2004-06-22": 87.459846, "2004-06-23": 90.150253, "2004-06-24": 88.945206, "2004-06-25": 90.451759, "2004-06-28": 90.391281, "2004-06-29": 87.920769, "2004-06-30": 86.052643, "2004-07-01": 86.414238, "2004-07-02": 85.751442, "2004-07-05": 85.932076, "2004-07-06": 81.713913, "2004-07-07": 88.282387, "2004-07-08": 90.150253, "2004-07-09": 89.306824, "2004-07-12": 86.474342, "2004-07-13": 87.438652, "2004-07-14": 87.860344, "2004-07-15": 87.378227, "2004-07-16": 85.08831, "2004-07-19": 84.184448, "2004-07-20": 85.691032, "2004-07-21": 87.619286, "2004-07-22": 84.365402, "2004-07-23": 84.66658, "2004-07-26": 81.653503, "2004-07-27": 82.316299, "2004-07-28": 76.652, "2004-07-29": 78.098129, "2004-07-30": 78.821365, "2004-08-02": 75.326103, "2004-08-03": 76.591583, "2004-08-04": 77.134148, "2004-08-05": 76.591583, "2004-08-06": 76.652, "2004-08-09": 76.290398, "2004-08-10": 78.218658, "2004-08-11": 79.062431, "2004-08-12": 79.484146, "2004-08-13": 80.689545, "2004-08-16": 79.725212, "2004-08-17": 81.231766, "2004-08-18": 81.955002, "2004-08-19": 80.388023, "2004-08-20": 80.388023, "2004-08-23": 81.050819, "2004-08-24": 80.568993, "2004-08-25": 81.111244, "2004-08-26": 81.111244, "2004-08-27": 81.352325, "2004-08-30": 81.352325, "2004-08-31": 79.725212, "2004-09-01": 80.448441, "2004-09-02": 80.930595, "2004-09-03": 82.015121, "2004-09-06": 84.003799, "2004-09-07": 83.581772, "2004-09-08": 84.184448, "2004-09-09": 81.593399, "2004-09-10": 81.713913, "2004-09-13": 83.039513, "2004-09-14": 82.497253, "2004-09-15": 82.677902, "2004-09-16": 80.9907, "2004-09-17": 80.689545, "2004-09-20": 80.388023, "2004-09-21": 79.966286, "2004-09-22": 75.988907, "2004-09-23": 73.699005, "2004-09-24": 74.482658, "2004-09-27": 72.976105, "2004-09-28": 75.02491, "2004-09-29": 69.601379, "2004-09-30": 71.6502, "2004-10-01": 74.422226, "2004-10-04": 75.265991, "2004-10-05": 78.098129, "2004-10-06": 82.617798, "2004-10-07": 82.075531, "2004-10-08": 84.184448, "2004-10-11": 83.280602, "2004-10-12": 82.135658, "2004-10-13": 79.966286, "2004-10-14": 79.182976, "2004-10-15": 78.580292, "2004-10-18": 76.71212, "2004-10-19": 77.796944, "2004-10-20": 77.435333, "2004-10-21": 78.339211, "2004-10-22": 77.073708, "2004-10-25": 76.410942, "2004-10-26": 76.953194, "2004-10-27": 79.484146, "2004-10-28": 79.062431, "2004-10-29": 78.760941, "2004-11-01": 79.544579, "2004-11-02": 79.785332, "2004-11-03": 80.9907, "2004-11-04": 78.45974, "2004-11-05": 80.207382, "2004-11-08": 79.845779, "2004-11-09": 79.905884, "2004-11-10": 82.794464, "2004-11-11": 82.794464, "2004-11-12": 85.272728, "2004-11-15": 85.971596, "2004-11-16": 85.908203, "2004-11-17": 89.593414, "2004-11-18": 90.86441, "2004-11-19": 92.516365, "2004-11-22": 92.135071, "2004-11-23": 92.834267, "2004-11-24": 93.660248, "2004-11-25": 94.041565, "2004-11-26": 93.024765, "2004-11-29": 93.596565, "2004-11-30": 94.67704, "2004-12-01": 94.67704, "2004-12-02": 93.660248, "2004-12-03": 93.723633, "2004-12-06": 92.516365, "2004-12-07": 91.81749, "2004-12-08": 90.356026, "2004-12-09": 89.720497, "2004-12-10": 89.657127, "2004-12-13": 90.673927, "2004-12-14": 89.593414, "2004-12-15": 89.847626, "2004-12-16": 90.419716, "2004-12-17": 90.356026, "2004-12-20": 91.372803, "2004-12-21": 89.911331, "2004-12-22": 91.81749, "2004-12-23": 91.436172, "2004-12-24": 91.754105, "2004-12-27": 91.754105, "2004-12-28": 91.754105, "2004-12-29": 91.436172, "2004-12-30": 93.278954, "2004-12-31": 93.533157, "2005-01-03": 93.533157, "2005-01-04": 91.81749, "2005-01-05": 90.800713, "2005-01-06": 90.546814, "2005-01-07": 90.86441, "2005-01-10": 90.228912, "2005-01-11": 87.178864, "2005-01-12": 88.322762, "2005-01-13": 86.543694, "2005-01-14": 86.35289, "2005-01-17": 88.068558, "2005-01-18": 87.305954, "2005-01-19": 88.005165, "2005-01-20": 86.670822, "2005-01-21": 85.971596, "2005-01-24": 85.971596, "2005-01-25": 87.87809, "2005-01-26": 87.178864, "2005-01-27": 86.289513, "2005-01-28": 85.654007, "2005-01-31": 86.416611, "2005-02-01": 86.480011, "2005-02-02": 87.941444, "2005-02-03": 88.64032, "2005-02-04": 90.483101, "2005-02-07": 90.165535, "2005-02-08": 90.86441, "2005-02-09": 89.974709, "2005-02-10": 90.101791, "2005-02-11": 92.135071, "2005-02-14": 91.690384, "2005-02-15": 91.690384, "2005-02-16": 90.73732, "2005-02-17": 90.546814, "2005-02-18": 90.419716, "2005-02-21": 89.085358, "2005-02-22": 87.560165, "2005-02-23": 87.178864, "2005-02-24": 85.84449, "2005-02-25": 85.78112, "2005-02-28": 85.654007, "2005-03-01": 86.035309, "2005-03-02": 89.27581, "2005-03-03": 89.530029, "2005-03-04": 89.911331, "2005-03-07": 89.974709, "2005-03-08": 89.911331, "2005-03-09": 93.406029, "2005-03-10": 92.262177, "2005-03-11": 93.15184, "2005-03-14": 92.325867, "2005-03-15": 93.406029, "2005-03-16": 91.754105, "2005-03-17": 90.356026, "2005-03-18": 90.483101, "2005-03-21": 90.228912, "2005-03-22": 91.181984, "2005-03-23": 89.085358, "2005-03-24": 88.831161, "2005-03-25": 88.831161, "2005-03-28": 88.831161, "2005-03-29": 87.433075, "2005-03-30": 87.433075, "2005-03-31": 87.305954, "2005-04-01": 87.560165, "2005-04-04": 86.861282, "2005-04-05": 87.178864, "2005-04-06": 88.068558, "2005-04-07": 88.704048, "2005-04-08": 88.831161, "2005-04-11": 88.513229, "2005-04-12": 87.433075, "2005-04-13": 87.242569, "2005-04-14": 88.322762, "2005-04-15": 85.336433, "2005-04-18": 83.493675, "2005-04-19": 83.811234, "2005-04-20": 81.460083, "2005-04-21": 82.159294, "2005-04-22": 81.587166, "2005-04-25": 80.379913, "2005-04-26": 80.316536, "2005-04-27": 79.490562, "2005-04-28": 77.266479, "2005-04-29": 77.139404, "2005-05-02": 77.139404, "2005-05-03": 77.520668, "2005-05-04": 78.982162, "2005-05-05": 79.61763, "2005-05-06": 78.346649, "2005-05-09": 78.156181, "2005-05-10": 75.360344, "2005-05-11": 76.122581, "2005-05-12": 76.249687, "2005-05-13": 75.296616, "2005-05-16": 73.835129, "2005-05-17": 75.550827, "2005-05-18": 76.503891, "2005-05-19": 76.567596, "2005-05-20": 78.219566, "2005-05-23": 78.283287, "2005-05-24": 77.076012, "2005-05-25": 77.711159, "2005-05-26": 82.985275, "2005-05-27": 83.429947, "2005-05-30": 83.429947, "2005-05-31": 83.747856, "2005-06-01": 85.78112, "2005-06-02": 86.543694, "2005-06-03": 87.623878, "2005-06-06": 87.051765, "2005-06-07": 89.021629, "2005-06-08": 88.322762, "2005-06-09": 88.513229, "2005-06-10": 89.021629, "2005-06-13": 89.847626, "2005-06-14": 89.27581, "2005-06-15": 89.974709, "2005-06-16": 91.81749, "2005-06-17": 91.754105, "2005-06-20": 91.436172, "2005-06-21": 91.181984, "2005-06-22": 91.81749, "2005-06-23": 91.944565, "2005-06-24": 90.86441, "2005-06-27": 90.292625, "2005-06-28": 91.499886, "2005-06-29": 99.304062, "2005-06-30": 100.3442, "2005-07-01": 101.939171, "2005-07-04": 102.632751, "2005-07-05": 102.355331, "2005-07-06": 107.070724, "2005-07-07": 106.377182, "2005-07-08": 107.486893, "2005-07-11": 108.943199, "2005-07-12": 105.198341, "2005-07-13": 105.198341, "2005-07-14": 107.20945, "2005-07-15": 106.654617, "2005-07-18": 106.030602, "2005-07-19": 107.903015, "2005-07-20": 106.169296, "2005-07-21": 105.337044, "2005-07-22": 109.636703, "2005-07-25": 110.191551, "2005-07-26": 109.289757, "2005-07-27": 109.359291, "2005-07-28": 110.954269, "2005-07-29": 112.757141, "2005-08-01": 113.034584, "2005-08-02": 113.728127, "2005-08-03": 114.213402, "2005-08-04": 112.479736, "2005-08-05": 112.202278, "2005-08-08": 113.242821, "2005-08-09": 112.757141, "2005-08-10": 116.987221, "2005-08-11": 117.195526, "2005-08-12": 118.651756, "2005-08-15": 117.542076, "2005-08-16": 116.294067, "2005-08-17": 115.323082, "2005-08-18": 115.392273, "2005-08-19": 116.224541, "2005-08-22": 116.36322, "2005-08-23": 116.155373, "2005-08-24": 114.074715, "2005-08-25": 111.716995, "2005-08-26": 112.063919, "2005-08-29": 112.063919, "2005-08-30": 112.479736, "2005-08-31": 114.074715, "2005-09-01": 114.213402, "2005-09-02": 114.421684, "2005-09-05": 114.906944, "2005-09-06": 114.768234, "2005-09-07": 115.669685, "2005-09-08": 115.530983, "2005-09-09": 117.958221, "2005-09-12": 117.611633, "2005-09-13": 116.0858, "2005-09-14": 115.739235, "2005-09-15": 114.906944, "2005-09-16": 114.074715, "2005-09-19": 114.421684, "2005-09-20": 113.381516, "2005-09-21": 112.063919, "2005-09-22": 112.757141, "2005-09-23": 114.837776, "2005-09-26": 114.699097, "2005-09-27": 113.728127, "2005-09-28": 116.155373, "2005-09-29": 114.837776, "2005-09-30": 114.837776, "2005-10-03": 114.768234, "2005-10-04": 114.421684, "2005-10-05": 114.560371, "2005-10-06": 114.282959, "2005-10-07": 113.797272, "2005-10-10": 110.74604, "2005-10-11": 107.417732, "2005-10-12": 108.45784, "2005-10-13": 104.64386, "2005-10-14": 106.862862, "2005-10-17": 108.527046, "2005-10-18": 108.45784, "2005-10-19": 105.059647, "2005-10-20": 104.851746, "2005-10-21": 103.464638, "2005-10-24": 105.337044, "2005-10-25": 107.140274, "2005-10-26": 108.527046, "2005-10-27": 105.614464, "2005-10-28": 105.891861, "2005-10-31": 106.79332, "2005-11-01": 107.764305, "2005-11-02": 109.081863, "2005-11-03": 109.359291, "2005-11-04": 108.943199, "2005-11-07": 109.497993, "2005-11-08": 112.063919, "2005-11-09": 114.213402, "2005-11-10": 117.195526, "2005-11-11": 117.889046, "2005-11-14": 116.224541, "2005-11-15": 116.501968, "2005-11-16": 116.640678, "2005-11-17": 122.049629, "2005-11-18": 125.17041, "2005-11-21": 125.239601, "2005-11-22": 125.655731, "2005-11-23": 134.207626, "2005-11-24": 132.890671, "2005-11-25": 132.817245, "2005-11-28": 132.597885, "2005-11-29": 132.378159, "2005-11-30": 129.890137, "2005-12-01": 135.012863, "2005-12-02": 137.42746, "2005-12-05": 137.061752, "2005-12-06": 139.403305, "2005-12-07": 140.500916, "2005-12-08": 141.306137, "2005-12-09": 142.696503, "2005-12-12": 143.281601, "2005-12-13": 141.232788, "2005-12-14": 140.57431, "2005-12-15": 140.867004, "2005-12-16": 143.428024, "2005-12-19": 143.720734, "2005-12-20": 142.915909, "2005-12-21": 141.086411, "2005-12-22": 139.476685, "2005-12-23": 139.91539, "2005-12-26": 139.91539, "2005-12-27": 139.91539, "2005-12-28": 139.842453, "2005-12-29": 139.623062, "2005-12-30": 139.769424, "2006-01-03": 142.037643, "2006-01-04": 143.428024, "2006-01-05": 146.428482, "2006-01-06": 147.08696, "2006-01-09": 147.160339, "2006-01-10": 147.08696, "2006-01-11": 150.233841, "2006-01-12": 147.233307, "2006-01-13": 146.428482, "2006-01-16": 145.769958, "2006-01-17": 144.745346, "2006-01-18": 143.574341, "2006-01-19": 145.038086, "2006-01-20": 146.794235, "2006-01-23": 146.794235, "2006-01-24": 144.671997, "2006-01-25": 148.184555, "2006-01-26": 150.233841, "2006-01-27": 151.916885, "2006-01-30": 149.721329, "2006-01-31": 149.574936, "2006-02-01": 152.721741, "2006-02-02": 151.477798, "2006-02-03": 151.477798, "2006-02-06": 152.355637, "2006-02-07": 155.35614, "2006-02-08": 151.989899, "2006-02-09": 154.258469, "2006-02-10": 153.673019, "2006-02-13": 155.136703, "2006-02-14": 154.77063, "2006-02-15": 155.648865, "2006-02-16": 160.917496, "2006-02-17": 161.063919, "2006-02-20": 165.381332, "2006-02-21": 167.722931, "2006-02-22": 166.478973, "2006-02-23": 166.918076, "2006-02-24": 168.015701, "2006-02-27": 171.967346, "2006-02-28": 169.113297, "2006-03-01": 168.08905, "2006-03-02": 171.089157, "2006-03-03": 166.99144, "2006-03-06": 169.333054, "2006-03-07": 164.357101, "2006-03-08": 161.28363, "2006-03-09": 163.625214, "2006-03-10": 164.357101, "2006-03-13": 167.064438, "2006-03-14": 167.357193, "2006-03-15": 172.918625, "2006-03-16": 171.674637, "2006-03-17": 171.967346, "2006-03-20": 171.308914, "2006-03-21": 170.577057, "2006-03-22": 172.113724, "2006-03-23": 171.894409, "2006-03-24": 173.431107, "2006-03-27": 172.040756, "2006-03-28": 174.455338, "2006-03-29": 174.528732, "2006-03-30": 175.919113, "2006-03-31": 180.382904, "2006-04-03": 184.993088, "2006-04-04": 183.602753, "2006-04-05": 188.432281, "2006-04-06": 190.700928, "2006-04-07": 188.285919, "2006-04-10": 185.066086, "2006-04-11": 182.578125, "2006-04-12": 179.431686, "2006-04-13": 187.115326, "2006-04-18": 188.725037, "2006-04-19": 191.725494, "2006-04-20": 193.993683, "2006-04-21": 193.188843, "2006-04-24": 189.164169, "2006-04-25": 188.944794, "2006-04-26": 190.993622, "2006-04-27": 187.334671, "2006-04-28": 184.919708, "2006-05-02": 189.456909, "2006-05-03": 190.993622, "2006-05-04": 192.603363, "2006-05-05": 197.726059, "2006-05-08": 199.409164, "2006-05-09": 194.067047, "2006-05-10": 192.164215, "2006-05-11": 189.529907, "2006-05-12": 184.480576, "2006-05-15": 175.626358, "2006-05-16": 169.186661, "2006-05-17": 166.259598, "2006-05-18": 164.64946, "2006-05-19": 166.845062, "2006-05-22": 156.746429, "2006-05-23": 161.795731, "2006-05-24": 160.624786, "2006-05-25": 167.2108, "2006-05-26": 173.065002, "2006-05-30": 165.381332, "2006-05-31": 171.162537, "2006-06-01": 177.089706, "2006-06-02": 178.772797, "2006-06-05": 178.846161, "2006-06-06": 170.504028, "2006-06-07": 173.138412, "2006-06-08": 166.918076, "2006-06-09": 171.381927, "2006-06-12": 173.211334, "2006-06-13": 165.747482, "2006-06-14": 166.845062, "2006-06-15": 173.504074, "2006-06-16": 171.967346, "2006-06-19": 175.333618, "2006-06-20": 175.552994, "2006-06-21": 175.552994, "2006-06-22": 180.822021, "2006-06-23": 181.992584, "2006-06-26": 183.749161, "2006-06-27": 181.553452, "2006-06-28": 181.846237, "2006-06-29": 183.968491, "2006-06-30": 186.456451, "2006-07-03": 187.334671, "2006-07-04": 188.432281, "2006-07-05": 194.058289, "2006-07-06": 198.827637, "2006-07-07": 197.107315, "2006-07-10": 199.687546, "2006-07-11": 196.090958, "2006-07-12": 198.045685, "2006-07-13": 190.774429, "2006-07-14": 188.116196, "2006-07-17": 183.112122, "2006-07-18": 179.202698, "2006-07-19": 184.9104, "2006-07-20": 186.865097, "2006-07-21": 182.564896, "2006-07-24": 189.836136, "2006-07-25": 193.041962, "2006-07-26": 189.679733, "2006-07-27": 193.119965, "2006-07-28": 192.181595, "2006-07-31": 191.869202, "2006-08-01": 189.679733, "2006-08-02": 191.947205, "2006-08-03": 190.148941, "2006-08-04": 190.696075, "2006-08-07": 187.881363, "2006-08-08": 188.741806, "2006-08-09": 189.445343, "2006-08-10": 188.037796, "2006-08-11": 189.758102, "2006-08-14": 187.520172, "2006-08-15": 194.687149, "2006-08-16": 198.90889, "2006-08-17": 199.612869, "2006-08-18": 197.736588, "2006-08-21": 196.211624, "2006-08-22": 197.501373, "2006-08-23": 196.563461, "2006-08-24": 197.61879, "2006-08-25": 200.433762, "2006-08-29": 199.847244, "2006-08-30": 200.081665, "2006-08-31": 198.087967, "2006-09-01": 199.847244, "2006-09-04": 205.476959, "2006-09-05": 208.408569, "2006-09-06": 204.538635, "2006-09-07": 202.66188, "2006-09-08": 205.359573, "2006-09-11": 206.884109, "2006-09-12": 208.057236, "2006-09-13": 203.014069, "2006-09-14": 201.957932, "2006-09-15": 201.723618, "2006-09-18": 200.551239, "2006-09-19": 199.730255, "2006-09-20": 204.538635, "2006-09-21": 203.365509, "2006-09-22": 199.378021, "2006-09-25": 194.687149, "2006-09-26": 200.081665, "2006-09-27": 205.476959, "2006-09-28": 207.939865, "2006-09-29": 210.167923, "2006-10-02": 208.878159, "2006-10-03": 206.415344, "2006-10-04": 204.77298, "2006-10-05": 206.649719, "2006-10-06": 206.063095, "2006-10-09": 207.236282, "2006-10-10": 220.775055, "2006-10-11": 218.581161, "2006-10-12": 219.966827, "2006-10-13": 219.851486, "2006-10-16": 215.809937, "2006-10-17": 212.461197, "2006-10-18": 222.276169, "2006-10-19": 219.851486, "2006-10-20": 223.546143, "2006-10-23": 223.315521, "2006-10-24": 222.73793, "2006-10-25": 221.352615, "2006-10-26": 222.62265, "2006-10-27": 223.777267, "2006-10-30": 220.775055, "2006-10-31": 225.393753, "2006-11-01": 223.084427, "2006-11-02": 222.507248, "2006-11-03": 224.007935, "2006-11-06": 226.779556, "2006-11-07": 226.548416, "2006-11-08": 225.393753, "2006-11-09": 224.700836, "2006-11-10": 224.931915, "2006-11-13": 222.62265, "2006-11-14": 224.007935, "2006-11-15": 222.106857, "2006-11-16": 226.40979, "2006-11-17": 224.316345, "2006-11-20": 226.990982, "2006-11-21": 225.595352, "2006-11-22": 228.27002, "2006-11-23": 228.851578, "2006-11-24": 225.479172, "2006-11-27": 221.060547, "2006-11-28": 218.618271, "2006-11-29": 220.478912, "2006-11-30": 220.478912, "2006-12-01": 218.50209, "2006-12-04": 220.711624, "2006-12-05": 223.269714, "2006-12-06": 228.735443, "2006-12-07": 232.689087, "2006-12-08": 233.037979, "2006-12-11": 236.4104, "2006-12-12": 231.410126, "2006-12-13": 230.1306, "2006-12-14": 235.130997, "2006-12-15": 236.991623, "2006-12-18": 238.619644, "2006-12-19": 236.759277, "2006-12-20": 239.782333, "2006-12-21": 241.759201, "2006-12-22": 244.433792, "2006-12-27": 244.201447, "2006-12-28": 243.85257, "2006-12-29": 243.154846, "2007-01-02": 247.224991, "2007-01-03": 247.457336, "2007-01-04": 246.062119, "2007-01-05": 244.084915, "2007-01-08": 242.805878, "2007-01-09": 242.457031, "2007-01-10": 238.15451, "2007-01-11": 243.270966, "2007-01-12": 243.154846, "2007-01-15": 245.480515, "2007-01-16": 242.805878, "2007-01-17": 247.341125, "2007-01-18": 250.364731, "2007-01-19": 252.10878, "2007-01-22": 253.853256, "2007-01-23": 251.876434, "2007-01-24": 257.690735, "2007-01-25": 256.876709, "2007-01-26": 252.922699, "2007-01-29": 253.969391, "2007-01-30": 250.015793, "2007-01-31": 248.736816, "2007-02-01": 254.551071, "2007-02-02": 254.318207, "2007-02-05": 265.481781, "2007-02-06": 269.319305, "2007-02-07": 265.132935, "2007-02-08": 265.597992, "2007-02-09": 275.133545, "2007-02-12": 267.923676, "2007-02-13": 261.411591, "2007-02-14": 269.319305, "2007-02-15": 271.179962, "2007-02-16": 273.738007, "2007-02-19": 277.226532, "2007-02-20": 275.598602, "2007-02-21": 273.272919, "2007-02-22": 275.947479, "2007-02-23": 275.831299, "2007-02-26": 273.505646, "2007-02-27": 259.085876, "2007-02-28": 255.365051, "2007-03-01": 250.131989, "2007-03-02": 249.201828, "2007-03-05": 245.945618, "2007-03-06": 246.294525, "2007-03-07": 243.96875, "2007-03-08": 251.294815, "2007-03-09": 252.225311, "2007-03-12": 247.573441, "2007-03-13": 238.736115, "2007-03-14": 229.084366, "2007-03-15": 244.898911, "2007-03-16": 244.550491, "2007-03-19": 249.783051, "2007-03-20": 251.643723, "2007-03-21": 253.969391, "2007-03-22": 258.388489, "2007-03-23": 258.853546, "2007-03-26": 253.969391, "2007-03-27": 253.271545, "2007-03-28": 252.573792, "2007-03-29": 262.80722, "2007-03-30": 258.155762, "2007-04-02": 261.179291, "2007-04-03": 263.970123, "2007-04-04": 264.900146, "2007-04-05": 260.481537, "2007-04-10": 263.040009, "2007-04-11": 260.248749, "2007-04-12": 257.923035, "2007-04-13": 259.318634, "2007-04-16": 264.667847, "2007-04-17": 263.970123, "2007-04-18": 265.365601, "2007-04-19": 262.342224, "2007-04-20": 258.388489, "2007-04-23": 257.923035, "2007-04-24": 255.365051, "2007-04-25": 257.457947, "2007-04-26": 261.179291, "2007-04-27": 258.62085, "2007-04-30": 262.80722, "2007-05-01": 260.714233, "2007-05-02": 270.249359, "2007-05-03": 266.295776, "2007-05-04": 271.877777, "2007-05-08": 267.691376, "2007-05-09": 265.132935, "2007-05-10": 266.993561, "2007-05-11": 267.225952, "2007-05-14": 265.365601, "2007-05-15": 264.900146, "2007-05-16": 264.435089, "2007-05-17": 268.854218, "2007-05-18": 269.319305, "2007-05-21": 267.225952, "2007-05-22": 271.644958, "2007-05-23": 274.203461, "2007-05-24": 272.807861, "2007-05-25": 270.249359, "2007-05-29": 272.807861, "2007-05-30": 270.017059, "2007-05-31": 273.738007, "2007-06-01": 279.213257, "2007-06-04": 274.43573, "2007-06-05": 270.947174, "2007-06-06": 269.086548, "2007-06-07": 262.342224, "2007-06-08": 264.900146, "2007-06-11": 270.714844, "2007-06-12": 272.110016, "2007-06-13": 274.203461, "2007-06-14": 281.412872, "2007-06-15": 287.45993, "2007-06-18": 288.855499, "2007-06-19": 284.669128, "2007-06-20": 290.948517, "2007-06-21": 289.552856, "2007-06-22": 290.948517, "2007-06-25": 287.692657, "2007-06-26": 282.808472, "2007-06-27": 273.970795, "2007-06-28": 281.180573, "2007-06-29": 283.27356, "2007-07-02": 286.063477, "2007-07-03": 286.529785, "2007-07-04": 288.738739, "2007-07-05": 281.22702, "2007-07-06": 281.931244, "2007-07-09": 282.165771, "2007-07-10": 278.410095, "2007-07-11": 278.175232, "2007-07-12": 289.443115, "2007-07-13": 297.424683, "2007-07-16": 294.372894, "2007-07-17": 287.799957, "2007-07-18": 282.870087, "2007-07-19": 281.931244, "2007-07-20": 280.992035, "2007-07-23": 286.156769, "2007-07-24": 288.034851, "2007-07-25": 283.809357, "2007-07-26": 272.072083, "2007-07-27": 264.325348, "2007-07-30": 256.34375, "2007-07-31": 266.672729, "2007-08-01": 252.118286, "2007-08-02": 253.761826, "2007-08-03": 254.93512, "2007-08-06": 246.015198, "2007-08-07": 253.761826, "2007-08-08": 265.264221, "2007-08-09": 247.42337, "2007-08-10": 225.005264, "2007-08-13": 240.380966, "2007-08-14": 232.164871, "2007-08-15": 228.760956, "2007-08-16": 209.746384, "2007-08-17": 215.497787, "2007-08-20": 218.080093, "2007-08-21": 215.028351, "2007-08-22": 226.061295, "2007-08-23": 230.052338, "2007-08-24": 224.183319, "2007-08-28": 222.070801, "2007-08-29": 224.770401, "2007-08-30": 228.29155, "2007-08-31": 231.69545, "2007-09-03": 233.338593, "2007-09-04": 238.502914, "2007-09-05": 229.700119, "2007-09-06": 231.812759, "2007-09-07": 224.30098, "2007-09-10": 220.896988, "2007-09-11": 228.408783, "2007-09-12": 228.878189, "2007-09-13": 231.812759, "2007-09-14": 227.469986, "2007-09-17": 219.37114, "2007-09-18": 224.30098, "2007-09-19": 237.564163, "2007-09-20": 237.094742, "2007-09-21": 241.789612, "2007-09-24": 245.545319, "2007-09-25": 250.94455, "2007-09-26": 253.292007, "2007-09-27": 260.804169, "2007-09-28": 259.86496, "2007-10-01": 257.282593, "2007-10-02": 261.742981, "2007-10-03": 265.264221, "2007-10-04": 264.325348, "2007-10-05": 270.19397, "2007-10-08": 270.428497, "2007-10-09": 271.367706, "2007-10-10": 268.081116, "2007-10-11": 262.212402, "2007-10-12": 261.977905, "2007-10-15": 254.465729, "2007-10-16": 250.710068, "2007-10-17": 258.456696, "2007-10-18": 255.874344, "2007-10-19": 253.526855, "2007-10-22": 247.658279, "2007-10-23": 252.118286, "2007-10-24": 252.587677, "2007-10-25": 262.447327, "2007-10-26": 263.151703, "2007-10-29": 263.151703, "2007-10-30": 270.428497, "2007-10-31": 276.062683, "2007-11-01": 267.142181, "2007-11-02": 269.724274, "2007-11-05": 262.681824, "2007-11-06": 266.672729, "2007-11-07": 262.447327, "2007-11-08": 260.334381, "2007-11-09": 250.710068, "2007-11-12": 255.874344, "2007-11-13": 252.118286, "2007-11-14": 257.517548, "2007-11-15": 253.761826, "2007-11-16": 249.593094, "2007-11-19": 233.455902, "2007-11-20": 241.085297, "2007-11-21": 231.460556, "2007-11-22": 238.972748, "2007-11-23": 242.024124, "2007-11-26": 213.006775, "2007-11-27": 221.143219, "2007-11-28": 233.533173, "2007-11-29": 229.49939, "2007-11-30": 236.080841, "2007-12-03": 233.957764, "2007-12-04": 231.197891, "2007-12-05": 237.77919, "2007-12-06": 242.874542, "2007-12-07": 243.511444, "2007-12-10": 243.723694, "2007-12-11": 246.483673, "2007-12-12": 247.969788, "2007-12-13": 243.299088, "2007-12-14": 243.936081, "2007-12-17": 233.533173, "2007-12-18": 232.047028, "2007-12-19": 229.711777, "2007-12-20": 234.382431, "2007-12-21": 241.388367, "2007-12-24": 244.360626, "2007-12-27": 242.025299, "2007-12-28": 240.326904, "2007-12-31": 241.600723, "2008-01-02": 237.77919, "2008-01-03": 233.745483, "2008-01-04": 224.404175, "2008-01-07": 218.247391, "2008-01-08": 222.281143, "2008-01-09": 224.404175, "2008-01-10": 215.275146, "2008-01-11": 218.884293, "2008-01-14": 225.041077, "2008-01-15": 226.527237, "2008-01-16": 220.158112, "2008-01-17": 214.213623, "2008-01-18": 207.738403, "2008-01-21": 199.989365, "2008-01-22": 211.772141, "2008-01-23": 213.36441, "2008-01-24": 231.410172, "2008-01-25": 231.410172, "2008-01-28": 227.376404, "2008-01-29": 225.041077, "2008-01-30": 225.253387, "2008-01-31": 232.047028, "2008-02-01": 247.545288, "2008-02-04": 238.840744, "2008-02-05": 234.807037, "2008-02-06": 237.991531, "2008-02-07": 235.231598, "2008-02-08": 240.326904, "2008-02-11": 231.197891, "2008-02-12": 236.505402, "2008-02-13": 246.059067, "2008-02-14": 244.148346, "2008-02-15": 235.656235, "2008-02-18": 244.148346, "2008-02-19": 246.271378, "2008-02-20": 244.148346, "2008-02-21": 238.840744, "2008-02-22": 238.203842, "2008-02-25": 246.271378, "2008-02-26": 249.031311, "2008-02-27": 251.578995, "2008-02-28": 243.086838, "2008-02-29": 235.656235, "2008-03-03": 225.890289, "2008-03-04": 227.376404, "2008-03-05": 240.326904, "2008-03-06": 234.807037, "2008-03-07": 232.47168, "2008-03-10": 224.61644, "2008-03-11": 230.136353, "2008-03-12": 239.05304, "2008-03-13": 234.807037, "2008-03-14": 229.711777, "2008-03-17": 206.358459, "2008-03-18": 224.828705, "2008-03-19": 225.465668, "2008-03-20": 221.644241, "2008-03-25": 228.013367, "2008-03-26": 231.622437, "2008-03-27": 237.77919, "2008-03-28": 235.443909, "2008-03-31": 235.443909, "2008-04-01": 243.723694, "2008-04-02": 243.936081, "2008-04-03": 237.991531, "2008-04-04": 241.176086, "2008-04-07": 249.243637, "2008-04-08": 243.723694, "2008-04-09": 241.812958, "2008-04-10": 237.991531, "2008-04-11": 236.29303, "2008-04-14": 233.533173, "2008-04-15": 242.449905, "2008-04-16": 247.757523, "2008-04-17": 242.449905, "2008-04-18": 249.668182, "2008-04-21": 244.572952, "2008-04-22": 242.237564, "2008-04-23": 243.299088, "2008-04-24": 243.299088, "2008-04-25": 243.086838, "2008-04-28": 245.634445, "2008-04-29": 242.025299, "2008-04-30": 246.90831, "2008-05-01": 245.634445, "2008-05-02": 249.668182, "2008-05-06": 247.969788, "2008-05-07": 250.09285, "2008-05-08": 251.366669, "2008-05-09": 249.668182, "2008-05-12": 249.880539, "2008-05-13": 252.428177, "2008-05-14": 253.701981, "2008-05-15": 253.914261, "2008-05-16": 254.763535, "2008-05-19": 252.852768, "2008-05-20": 243.511444, "2008-05-21": 240.751495, "2008-05-22": 243.511444, "2008-05-23": 242.874542, "2008-05-27": 244.148346, "2008-05-28": 249.880539, "2008-05-29": 262.830963, "2008-05-30": 263.680267, "2008-06-02": 265.590881, "2008-06-03": 265.166351, "2008-06-04": 265.803162, "2008-06-05": 261.98175, "2008-06-06": 259.434174, "2008-06-09": 263.680267, "2008-06-10": 263.467926, "2008-06-11": 256.674164, "2008-06-12": 264.529449, "2008-06-13": 261.132568, "2008-06-16": 259.858734, "2008-06-17": 264.104828, "2008-06-18": 259.858734, "2008-06-19": 259.858734, "2008-06-20": 263.255554, "2008-06-23": 259.858734, "2008-06-24": 263.892456, "2008-06-25": 264.529449, "2008-06-26": 260.495697, "2008-06-27": 259.434174, "2008-06-30": 264.953979, "2008-07-01": 256.674164, "2008-07-02": 256.249603, "2008-07-03": 250.517426, "2008-07-04": 247.332886, "2008-07-07": 250.305115, "2008-07-08": 242.237564, "2008-07-09": 250.305115, "2008-07-10": 253.277405, "2008-07-11": 255.188141, "2008-07-14": 264.104828, "2008-07-15": 256.037292, "2008-07-16": 258.660736, "2008-07-17": 266.683014, "2008-07-18": 269.284729, "2008-07-21": 270.585632, "2008-07-22": 262.129822, "2008-07-23": 266.032501, "2008-07-24": 262.563446, "2008-07-25": 256.492645, "2008-07-28": 254.974884, "2008-07-29": 253.673996, "2008-07-30": 264.948395, "2008-07-31": 266.466156, "2008-08-01": 268.851074, "2008-08-04": 266.032501, "2008-08-05": 245.001419, "2008-08-06": 238.496948, "2008-08-07": 240.014633, "2008-08-08": 234.160645, "2008-08-11": 238.496948, "2008-08-12": 233.293365, "2008-08-13": 229.824341, "2008-08-14": 225.054367, "2008-08-15": 219.633942, "2008-08-18": 225.271194, "2008-08-19": 219.850876, "2008-08-20": 230.691574, "2008-08-21": 227.222565, "2008-08-22": 236.328735, "2008-08-26": 239.147369, "2008-08-27": 235.895172, "2008-08-28": 240.881958, "2008-08-29": 246.735962, "2008-09-01": 243.917313, "2008-09-02": 234.37738, "2008-09-03": 227.872986, "2008-09-04": 218.983536, "2008-09-05": 213.6716, "2008-09-08": 221.151642, "2008-09-09": 218.333069, "2008-09-10": 225.704819, "2008-09-11": 227.872986, "2008-09-12": 222.669464, "2008-09-15": 202.830826, "2008-09-16": 199.578552, "2008-09-17": 192.098465, "2008-09-18": 175.728882, "2008-09-19": 203.806534, "2008-09-22": 187.978928, "2008-09-23": 172.585068, "2008-09-24": 176.921356, "2008-09-25": 165.972168, "2008-09-26": 162.069504, "2008-09-29": 132.474197, "2008-09-30": 146.025162, "2008-10-01": 152.096008, "2008-10-02": 149.602631, "2008-10-03": 151.55397, "2008-10-06": 124.126801, "2008-10-07": 133.775101, "2008-10-08": 130.089249, "2008-10-09": 134.967575, "2008-10-10": 127.05381, "2008-10-13": 146.350418, "2008-10-14": 156.865952, "2008-10-15": 142.881332, "2008-10-16": 134.425537, "2008-10-17": 137.786163, "2008-10-20": 152.963272, "2008-10-21": 149.060608, "2008-10-22": 153.50528, "2008-10-23": 152.963272, "2008-10-24": 137.244202, "2008-10-27": 136.160065, "2008-10-28": 129.872467, "2008-10-29": 149.819458, "2008-10-30": 154.155762, "2008-10-31": 154.372589, "2008-11-03": 156.432312, "2008-11-04": 174.75322, "2008-11-05": 170.091675, "2008-11-06": 117.080322, "2008-11-07": 119.573685, "2008-11-10": 121.741829, "2008-11-11": 107.540443, "2008-11-12": 82.389847, "2008-11-13": 90.412033, "2008-11-14": 97.350113, "2008-11-17": 90.628838, "2008-11-18": 90.086792, "2008-11-19": 93.77269, "2008-11-20": 86.032364, "2008-11-21": 89.111115, "2008-11-24": 98.108978, "2008-11-25": 103.637772, "2008-11-26": 110.090294, "2008-11-27": 111.915634, "2008-11-28": 114.425484, "2008-12-01": 105.983315, "2008-12-02": 109.519882, "2008-12-03": 116.82122, "2008-12-04": 123.209877, "2008-12-05": 119.445152, "2008-12-08": 127.887291, "2008-12-09": 131.880188, "2008-12-10": 136.899857, "2008-12-11": 132.678787, "2008-12-12": 112.143799, "2008-12-15": 115.794472, "2008-12-16": 109.519882, "2008-12-17": 108.036819, "2008-12-18": 109.405807, "2008-12-19": 107.238243, "2008-12-22": 102.446739, "2008-12-23": 100.849564, "2008-12-24": 105.75515, "2008-12-29": 106.211494, "2008-12-30": 107.12413, "2008-12-31": 108.379051, "2009-01-02": 109.063576, "2009-01-05": 111.573372, "2009-01-06": 130.96756, "2009-01-07": 118.646545, "2009-01-08": 115.452209, "2009-01-09": 111.23114, "2009-01-12": 104.956566, "2009-01-13": 102.788986, "2009-01-14": 95.82991, "2009-01-15": 97.198898, "2009-01-16": 103.017143, "2009-01-19": 97.997482, "2009-01-20": 97.655243, "2009-01-21": 100.735489, "2009-01-22": 94.346832, "2009-01-23": 98.339745, "2009-01-26": 102.218582, "2009-01-27": 98.339745, "2009-01-28": 101.191833, "2009-01-29": 92.065163, "2009-01-30": 94.11866, "2009-02-02": 83.737083, "2009-02-03": 87.022675, "2009-02-04": 93.206009, "2009-02-05": 93.320076, "2009-02-06": 95.71582, "2009-02-09": 97.541153, "2009-02-10": 93.206009, "2009-02-11": 92.065163, "2009-02-12": 94.803146, "2009-02-13": 92.065163, "2009-02-16": 88.254791, "2009-02-17": 81.683578, "2009-02-18": 84.010887, "2009-02-19": 81.40979, "2009-02-20": 77.439705, "2009-02-23": 79.082489, "2009-02-24": 77.85041, "2009-02-25": 80.9991, "2009-02-26": 84.147797, "2009-02-27": 78.443611, "2009-03-02": 74.108459, "2009-03-03": 72.146233, "2009-03-04": 77.987297, "2009-03-05": 69.636414, "2009-03-06": 72.60257, "2009-03-09": 70.959778, "2009-03-10": 80.22332, "2009-03-11": 86.657608, "2009-03-12": 85.425514, "2009-03-13": 88.072258, "2009-03-16": 88.984924, "2009-03-17": 86.840157, "2009-03-18": 86.611977, "2009-03-19": 90.353912, "2009-03-20": 95.259491, "2009-03-23": 97.198898, "2009-03-24": 91.836983, "2009-03-25": 94.689072, "2009-03-26": 99.93689, "2009-03-27": 97.198898, "2009-03-30": 90.855873, "2009-03-31": 99.70874, "2009-04-01": 99.366501, "2009-04-02": 116.022659, "2009-04-03": 112.600151, "2009-04-06": 111.573372, "2009-04-07": 103.131248, "2009-04-08": 100.735489, "2009-04-09": 108.379051, "2009-04-14": 114.995918, "2009-04-15": 109.97625, "2009-04-16": 114.767723, "2009-04-17": 125.035202, "2009-04-20": 112.828293, "2009-04-21": 111.915634, "2009-04-22": 113.969139, "2009-04-23": 108.949486, "2009-04-24": 113.512787, "2009-04-27": 111.002975, "2009-04-28": 108.493134, "2009-04-29": 112.600151, "2009-04-30": 115.680382, "2009-05-01": 113.170555, "2009-05-05": 117.847954, "2009-05-06": 111.23114, "2009-05-07": 108.036819, "2009-05-08": 110.090294, "2009-05-11": 111.915634, "2009-05-12": 105.641068, "2009-05-13": 102.903084, "2009-05-14": 104.614311, "2009-05-15": 105.41288, "2009-05-18": 109.291725, "2009-05-19": 109.74807, "2009-05-20": 105.869232, "2009-05-21": 101.534058, "2009-05-22": 106.325577, "2009-05-26": 108.264984, "2009-05-27": 114.083229, "2009-05-28": 106.211494, "2009-05-29": 110.090294, "2009-06-01": 116.593048, "2009-06-02": 116.82122, "2009-06-03": 116.022659, "2009-06-04": 112.942383, "2009-06-05": 124.122536, "2009-06-08": 121.498619, "2009-06-09": 122.297211, "2009-06-10": 119.559227, "2009-06-11": 121.27047, "2009-06-12": 129.028107, "2009-06-15": 125.263397, "2009-06-16": 130.625259, "2009-06-17": 125.491539, "2009-06-18": 130.625259, "2009-06-19": 136.671692, "2009-06-22": 130.054855, "2009-06-23": 130.96756, "2009-06-24": 125.605652, "2009-06-25": 127.545044, "2009-06-26": 126.061958, "2009-06-29": 130.5112, "2009-06-30": 126.632362, "2009-07-01": 126.617889, "2009-07-02": 123.23494, "2009-07-03": 123.476593, "2009-07-06": 123.839035, "2009-07-07": 118.885483, "2009-07-08": 115.623405, "2009-07-09": 116.710747, "2009-07-10": 116.831581, "2009-07-13": 121.664284, "2009-07-14": 125.409683, "2009-07-15": 132.658829, "2009-07-16": 132.41716, "2009-07-17": 135.800095, "2009-07-20": 138.095657, "2009-07-21": 135.316803, "2009-07-22": 137.73317, "2009-07-23": 135.07518, "2009-07-24": 139.182999, "2009-07-27": 138.699753, "2009-07-28": 136.162552, "2009-07-29": 137.974838, "2009-07-30": 138.820541, "2009-07-31": 133.746185, "2009-08-03": 135.606796, "2009-08-04": 133.383713, "2009-08-05": 132.41716, "2009-08-06": 132.4655, "2009-08-07": 130.000793, "2009-08-10": 132.707138, "2009-08-11": 130.145767, "2009-08-12": 127.584427, "2009-08-13": 126.811172, "2009-08-14": 127.14946, "2009-08-17": 123.814903, "2009-08-18": 125.506355, "2009-08-19": 120.818596, "2009-08-20": 119.368744, "2009-08-21": 125.602997, "2009-08-24": 129.082565, "2009-08-25": 135.316803, "2009-08-26": 131.595581, "2009-08-27": 129.952454, "2009-08-28": 130.000793, "2009-09-01": 124.394806, "2009-09-02": 123.089973, "2009-09-03": 123.573242, "2009-09-04": 125.602997, "2009-09-07": 130.339096, "2009-09-08": 131.015656, "2009-09-09": 130.145767, "2009-09-10": 129.324203, "2009-09-11": 140.826157, "2009-09-14": 143.097549, "2009-09-15": 147.688644, "2009-09-16": 149.57341, "2009-09-17": 149.380142, "2009-09-18": 145.997208, "2009-09-21": 144.788986, "2009-09-22": 141.937653, "2009-09-23": 146.722092, "2009-09-24": 147.012039, "2009-09-25": 144.30574, "2009-09-28": 146.818756, "2009-09-29": 148.89682, "2009-09-30": 160.060471, "2009-10-01": 156.290955, "2009-10-02": 153.149628, "2009-10-05": 154.067841, "2009-10-06": 158.369034, "2009-10-07": 160.688721, "2009-10-08": 164.409943, "2009-10-09": 164.941559, "2009-10-12": 170.934158, "2009-10-13": 168.324448, "2009-10-14": 173.882126, "2009-10-15": 173.012192, "2009-10-16": 169.001038, "2009-10-19": 173.978775, "2009-10-20": 177.361679, "2009-10-21": 173.495468, "2009-10-22": 169.146042, "2009-10-23": 169.629318, "2009-10-26": 167.309586, "2009-10-27": 160.108795, "2009-10-28": 145.465576, "2009-10-29": 148.848511, "2009-10-30": 149.815048, "2009-11-02": 150.539963, "2009-11-03": 150.298355, "2009-11-04": 157.064194, "2009-11-05": 156.967499, "2009-11-06": 159.238892, "2009-11-09": 164.89325, "2009-11-10": 167.212936, "2009-11-11": 173.785492, "2009-11-12": 176.395142, "2009-11-13": 177.893326, "2009-11-16": 179.391418, "2009-11-17": 171.900696, "2009-11-18": 174.945328, "2009-11-19": 169.774277, "2009-11-20": 165.811432, "2009-11-23": 170.160919, "2009-11-24": 167.937851, "2009-11-25": 165.380783, "2009-11-26": 160.126648, "2009-11-27": 162.478516, "2009-11-30": 159.32605, "2009-12-01": 164.229889, "2009-12-02": 163.179062, "2009-12-03": 162.478516, "2009-12-04": 164.430054, "2009-12-07": 162.728714, "2009-12-08": 158.475388, "2009-12-09": 152.270447, "2009-12-10": 158.075012, "2009-12-11": 155.022568, "2009-12-14": 158.725555, "2009-12-15": 155.122711, "2009-12-16": 157.574631, "2009-12-17": 152.470596, "2009-12-18": 148.067139, "2009-12-21": 150.719223, "2009-12-22": 151.770065, "2009-12-23": 152.870926, "2009-12-24": 152.620728, "2009-12-29": 154.922562, "2009-12-30": 152.220413, "2009-12-31": 154.372101, "2010-01-04": 156.323654, "2010-01-05": 162.778763, "2010-01-06": 160.62706, "2010-01-07": 163.829575, "2010-01-08": 160.026566, "2010-01-11": 157.124268, "2010-01-12": 156.173538, "2010-01-13": 156.123505, "2010-01-14": 157.324448, "2010-01-15": 146.465866, "2010-01-18": 144.264099, "2010-01-19": 142.512726, "2010-01-20": 138.009155, "2010-01-21": 136.90831, "2010-01-22": 136.357864, "2010-01-25": 132.454773, "2010-01-26": 131.654099, "2010-01-27": 123.097374, "2010-01-28": 118.844002, "2010-01-29": 118.593788, "2010-02-01": 122.196648, "2010-02-02": 121.345985, "2010-02-03": 118.643822, "2010-02-04": 112.639122, "2010-02-05": 108.585884, "2010-02-08": 107.535072, "2010-02-09": 109.987, "2010-02-10": 108.585884, "2010-02-11": 109.136314, "2010-02-12": 110.337273, "2010-02-15": 109.836868, "2010-02-16": 113.99015, "2010-02-17": 119.894844, "2010-02-18": 119.344398, "2010-02-19": 118.793953, "2010-02-22": 118.543762, "2010-02-23": 115.491356, "2010-02-24": 114.29039, "2010-02-25": 110.087074, "2010-02-26": 112.438919, "2010-03-01": 112.689125, "2010-03-02": 117.442894, "2010-03-03": 119.394447, "2010-03-04": 119.394447, "2010-03-05": 123.047302, "2010-03-08": 125.849564, "2010-03-09": 124.798691, "2010-03-10": 124.098152, "2010-03-11": 124.148193, "2010-03-12": 126.249847, "2010-03-15": 123.847977, "2010-03-16": 123.24749, "2010-03-17": 118.743912, "2010-03-18": 120.595413, "2010-03-19": 122.146614, "2010-03-22": 121.496109, "2010-03-23": 121.44606, "2010-03-24": 123.447632, "2010-03-25": 125.799492, "2010-03-26": 121.295952, "2010-03-29": 123.797905, "2010-03-30": 121.345985, "2010-03-31": 120.845566, "2010-04-01": 122.296707, "2010-04-06": 126.099739, "2010-04-07": 133.805832, "2010-04-08": 131.704178, "2010-04-09": 132.20459, "2010-04-12": 132.654968, "2010-04-13": 136.257767, "2010-04-14": 135.807449, "2010-04-15": 135.75737, "2010-04-16": 133.455536, "2010-04-19": 132.104492, "2010-04-20": 133.605682, "2010-04-21": 131.353897, "2010-04-22": 127.801079, "2010-04-23": 129.852676, "2010-04-26": 132.104492, "2010-04-27": 123.898003, "2010-04-28": 119.444489, "2010-04-29": 123.24749, "2010-04-30": 121.746277, "2010-05-04": 118.143456, "2010-05-05": 113.589836, "2010-05-06": 110.887726, "2010-05-07": 105.133156, "2010-05-10": 114.190308, "2010-05-11": 110.987778, "2010-05-12": 113.99015, "2010-05-13": 114.940926, "2010-05-14": 110.837677, "2010-05-17": 101.029907, "2010-05-18": 110.23719, "2010-05-19": 107.735199, "2010-05-20": 107.785255, "2010-05-21": 107.184769, "2010-05-24": 108.235626, "2010-05-25": 104.832909, "2010-05-26": 107.735199, "2010-05-27": 119.244316, "2010-05-28": 116.492134, "2010-06-01": 118.393661, "2010-06-02": 118.944061, "2010-06-03": 121.646233, "2010-06-04": 119.294342, "2010-06-07": 116.84243, "2010-06-08": 117.643066, "2010-06-09": 119.194244, "2010-06-10": 121.496109, "2010-06-11": 123.297554, "2010-06-14": 122.546921, "2010-06-15": 122.847198, "2010-06-16": 119.694672, "2010-06-17": 122.246704, "2010-06-18": 124.298332, "2010-06-21": 127.30069, "2010-06-22": 129.252213, "2010-06-23": 128.351517, "2010-06-24": 127.100533, "2010-06-25": 123.397583, "2010-06-28": 124.948837, "2010-06-29": 120.645447, "2010-06-30": 120.322113, "2010-07-01": 116.388603, "2010-07-02": 115.58036, "2010-07-05": 114.610466, "2010-07-06": 117.574074, "2010-07-07": 116.981369, "2010-07-08": 117.681824, "2010-07-09": 118.382294, "2010-07-12": 116.280861, "2010-07-13": 119.082794, "2010-07-14": 118.059006, "2010-07-15": 116.119202, "2010-07-16": 112.832291, "2010-07-19": 113.909981, "2010-07-20": 112.509003, "2010-07-21": 115.957558, "2010-07-22": 117.412415, "2010-07-23": 116.604156, "2010-07-26": 121.022614, "2010-07-27": 121.507584, "2010-07-28": 120.968719, "2010-07-29": 120.375999, "2010-07-30": 117.089096, "2010-08-02": 120.322113, "2010-08-03": 122.639137, "2010-08-04": 121.723114, "2010-08-05": 123.231857, "2010-08-06": 122.046371, "2010-08-09": 122.100266, "2010-08-10": 120.10659, "2010-08-11": 114.448822, "2010-08-12": 113.317268, "2010-08-13": 113.8022, "2010-08-16": 113.371132, "2010-08-17": 116.873566, "2010-08-18": 115.095421, "2010-08-19": 112.993958, "2010-08-20": 111.21579, "2010-08-23": 112.778419, "2010-08-24": 111.269676, "2010-08-25": 111.323563, "2010-08-26": 111.377449, "2010-08-27": 111.377449, "2010-08-31": 112.185699, "2010-09-01": 116.65802, "2010-09-02": 123.393509, "2010-09-03": 124.956123, "2010-09-06": 126.842049, "2010-09-07": 121.615326, "2010-09-08": 123.824562, "2010-09-09": 124.848389, "2010-09-10": 126.087662, "2010-09-13": 126.572632, "2010-09-14": 124.956123, "2010-09-15": 126.949821, "2010-09-16": 126.949821, "2010-09-17": 121.345917, "2010-09-20": 122.477463, "2010-09-21": 121.022614, "2010-09-22": 119.459991, "2010-09-23": 118.543968, "2010-09-24": 119.51387, "2010-09-27": 118.166794, "2010-09-28": 115.364838, "2010-09-29": 114.879875, "2010-09-30": 118.059006, "2010-10-01": 116.496384, "2010-10-04": 117.250748, "2010-10-05": 122.369713, "2010-10-06": 128.081345, "2010-10-07": 134.601303, "2010-10-08": 134.924591, "2010-10-11": 138.480927, "2010-10-12": 138.373138, "2010-10-13": 144.94696, "2010-10-14": 142.09111, "2010-10-15": 142.252762, "2010-10-18": 145.43187, "2010-10-19": 139.989655, "2010-10-20": 140.90567, "2010-10-21": 141.875565, "2010-10-22": 138.480927, "2010-10-25": 140.474625, "2010-10-26": 139.181381, "2010-10-27": 136.756622, "2010-10-28": 139.235275, "2010-10-29": 140.528503, "2010-11-01": 139.450806, "2010-11-02": 139.181381, "2010-11-03": 136.702744, "2010-11-04": 156.693542, "2010-11-05": 156.262497, "2010-11-08": 157.932907, "2010-11-09": 161.489212, "2010-11-10": 157.07077, "2010-11-11": 157.986786, "2010-11-12": 156.100861, "2010-11-15": 158.256149, "2010-11-16": 151.359085, "2010-11-17": 151.035782, "2010-11-18": 153.137253, "2010-11-19": 159.010544, "2010-11-22": 155.454269, "2010-11-23": 147.910583, "2010-11-24": 154.304092, "2010-11-25": 153.863541, "2010-11-26": 148.52182, "2010-11-29": 143.565582, "2010-11-30": 145.878479, "2010-12-01": 150.118835, "2010-12-02": 158.98497, "2010-12-03": 153.698303, "2010-12-06": 152.431717, "2010-12-07": 156.121338, "2010-12-08": 153.202698, "2010-12-09": 156.451797, "2010-12-10": 156.947388, "2010-12-13": 157.663284, "2010-12-14": 158.269073, "2010-12-15": 160.912399, "2010-12-16": 158.324142, "2010-12-17": 161.903625, "2010-12-20": 163.335434, "2010-12-21": 163.225281, "2010-12-22": 165.978745, "2010-12-23": 164.657089, "2010-12-24": 163.83107, "2010-12-29": 164.767242, "2010-12-30": 165.538193, "2010-12-31": 163.00502, "2011-01-04": 168.401779, "2011-01-05": 170.990082, "2011-01-06": 166.474365, "2011-01-07": 170.824875, "2011-01-10": 168.071411, "2011-01-11": 169.998795, "2011-01-12": 166.584518, "2011-01-13": 168.236618, "2011-01-14": 169.778549, "2011-01-17": 167.30043, "2011-01-18": 169.503189, "2011-01-19": 165.923691, "2011-01-20": 161.95874, "2011-01-21": 155.295319, "2011-01-24": 156.892334, "2011-01-25": 153.037491, "2011-01-26": 156.231491, "2011-01-27": 160.747177, "2011-01-28": 163.280334, "2011-01-31": 162.013794, "2011-02-01": 166.804779, "2011-02-02": 167.080154, "2011-02-03": 164.987518, "2011-02-04": 167.080154, "2011-02-07": 171.265411, "2011-02-08": 170.164017, "2011-02-09": 167.741013, "2011-02-10": 169.282913, "2011-02-11": 170.164017, "2011-02-14": 169.668396, "2011-02-15": 167.961273, "2011-02-16": 168.236618, "2011-02-17": 170.164017, "2011-02-18": 167.520721, "2011-02-21": 162.289139, "2011-02-22": 159.2603, "2011-02-23": 157.773422, "2011-02-24": 154.689575, "2011-02-25": 158.98497, "2011-02-28": 158.214005, "2011-03-01": 155.790939, "2011-03-02": 156.066284, "2011-03-03": 155.570679, "2011-03-04": 153.09256, "2011-03-07": 154.469315, "2011-03-08": 156.616974, "2011-03-09": 154.63446, "2011-03-10": 149.788406, "2011-03-11": 146.759613, "2011-03-14": 145.603104, "2011-03-15": 142.409103, "2011-03-16": 137.397812, "2011-03-17": 134.479141, "2011-03-18": 134.974762, "2011-03-21": 135.195053, "2011-03-22": 133.708206, "2011-03-23": 136.296432, "2011-03-24": 139.325241, "2011-03-25": 137.673172, "2011-03-28": 134.644363, "2011-03-29": 135.580505, "2011-03-30": 136.186279, "2011-03-31": 135.415329, "2011-04-01": 139.38031, "2011-04-04": 134.203781, "2011-04-05": 136.847122, "2011-04-06": 136.296432, "2011-04-07": 133.212555, "2011-04-08": 133.377762, "2011-04-11": 133.928436, "2011-04-12": 132.111176, "2011-04-13": 133.763229, "2011-04-14": 132.386505, "2011-04-15": 138.003586, "2011-04-18": 132.001038, "2011-04-19": 131.505417, "2011-04-20": 133.708206, "2011-04-21": 134.534195, "2011-04-26": 136.571777, "2011-04-27": 137.012329, "2011-04-28": 137.507935, "2011-05-03": 142.07872, "2011-05-04": 142.464172, "2011-05-05": 139.435379, "2011-05-06": 136.241348, "2011-05-09": 135.470398, "2011-05-10": 136.95723, "2011-05-11": 139.160034, "2011-05-12": 135.305145, "2011-05-13": 135.305145, "2011-05-16": 135.250122, "2011-05-17": 134.313934, "2011-05-18": 135.305145, "2011-05-19": 137.948517, "2011-05-20": 137.342743, "2011-05-23": 131.230057, "2011-05-24": 130.2939, "2011-05-25": 131.670639, "2011-05-26": 134.919678, "2011-05-27": 139.490448, "2011-05-31": 141.472931, "2011-06-01": 140.041138, "2011-06-02": 138.003586, "2011-06-03": 137.893417, "2011-06-06": 137.563049, "2011-06-07": 136.902191, "2011-06-08": 134.424103, "2011-06-09": 133.542984, "2011-06-10": 130.514175, "2011-06-13": 130.78952, "2011-06-14": 132.276382, "2011-06-15": 128.09111, "2011-06-16": 126.273819, "2011-06-17": 126.549171, "2011-06-20": 121.978409, "2011-06-21": 126.989731, "2011-06-22": 133.157501, "2011-06-23": 130.514175, "2011-06-24": 129.633026, "2011-06-27": 125.337654, "2011-06-28": 128.201233, "2011-06-29": 133.087372, "2011-06-30": 134.96666, "2011-07-01": 137.984924, "2011-07-04": 138.38356, "2011-07-05": 140.832336, "2011-07-06": 140.604507, "2011-07-07": 145.615936, "2011-07-08": 147.836914, "2011-07-11": 143.45192, "2011-07-12": 140.319763, "2011-07-13": 139.978058, "2011-07-14": 137.016815, "2011-07-15": 137.35849, "2011-07-18": 131.549759, "2011-07-19": 135.251419, "2011-07-20": 137.35849, "2011-07-21": 138.497452, "2011-07-22": 138.440506, "2011-07-25": 136.732056, "2011-07-26": 133.201279, "2011-07-27": 130.069138, "2011-07-28": 129.214905, "2011-07-29": 126.880074, "2011-08-01": 124.488235, "2011-08-02": 121.299149, "2011-08-03": 119.590729, "2011-08-04": 113.72506, "2011-08-05": 109.510941, "2011-08-08": 101.367363, "2011-08-09": 103.303596, "2011-08-10": 106.60656, "2011-08-11": 109.738701, "2011-08-12": 113.041702, "2011-08-15": 112.700012, "2011-08-16": 113.611183, "2011-08-17": 113.440338, "2011-08-18": 105.695412, "2011-08-19": 107.517746, "2011-08-22": 109.738701, "2011-08-23": 111.674934, "2011-08-24": 123.064545, "2011-08-25": 117.369736, "2011-08-26": 118.223953, "2011-08-30": 123.804848, "2011-08-31": 127.563438, "2011-09-01": 126.538345, "2011-09-02": 124.716042, "2011-09-05": 120.615799, "2011-09-06": 119.021217, "2011-09-07": 125.513313, "2011-09-08": 130.467758, "2011-09-09": 123.121513, "2011-09-12": 129.328827, "2011-09-13": 129.898315, "2011-09-14": 131.720627, "2011-09-15": 136.732056, "2011-09-16": 135.080551, "2011-09-19": 130.866409, "2011-09-20": 133.258224, "2011-09-21": 131.663666, "2011-09-22": 125.854965, "2011-09-23": 131.777588, "2011-09-26": 129.613571, "2011-09-27": 136.447311, "2011-09-28": 102.506332, "2011-09-29": 100.228401, "2011-09-30": 95.957329, "2011-10-03": 91.572334, "2011-10-04": 90.604225, "2011-10-05": 93.736351, "2011-10-06": 92.597404, "2011-10-07": 95.21698, "2011-10-10": 97.324066, "2011-10-11": 94.647499, "2011-10-12": 89.009666, "2011-10-13": 85.421944, "2011-10-14": 89.75, "2011-10-17": 91.572334, "2011-10-18": 90.148628, "2011-10-19": 89.75, "2011-10-20": 85.421944, "2011-10-21": 88.554077, "2011-10-24": 89.180527, "2011-10-25": 88.838814, "2011-10-26": 88.440186, "2011-10-27": 91.629265, "2011-10-28": 87.358162, "2011-10-31": 85.36499, "2011-11-01": 77.449219, "2011-11-02": 80.467476, "2011-11-03": 82.403679, "2011-11-04": 79.727142, "2011-11-07": 80.467476, "2011-11-08": 82.973175, "2011-11-09": 81.492538, "2011-11-10": 81.606438, "2011-11-11": 84.966347, "2011-11-14": 83.200974, "2011-11-15": 82.232841, "2011-11-16": 81.549477, "2011-11-17": 80.06884, "2011-11-18": 80.182739, "2011-11-21": 78.0187, "2011-11-22": 78.246483, "2011-11-23": 73.573738, "2011-11-24": 74.883308, "2011-11-25": 74.526146, "2011-11-28": 78.752464, "2011-11-29": 82.145424, "2011-11-30": 84.466934, "2011-12-01": 83.097839, "2011-12-02": 84.764549, "2011-12-05": 87.145576, "2011-12-06": 85.240768, "2011-12-07": 83.216896, "2011-12-08": 80.478699, "2011-12-09": 80.240616, "2011-12-12": 77.502426, "2011-12-13": 79.94297, "2011-12-14": 77.383362, "2011-12-15": 79.466782, "2011-12-16": 75.954765, "2011-12-19": 73.69278, "2011-12-20": 76.311905, "2011-12-21": 74.942825, "2011-12-22": 74.645195, "2011-12-23": 76.133331, "2011-12-28": 75.299973, "2011-12-29": 76.252388, "2011-12-30": 74.823769, "2012-01-03": 76.371437, "2012-01-04": 75.65712, "2012-01-05": 73.216576, "2012-01-06": 67.085434, "2012-01-09": 63.871048, "2012-01-10": 64.466301, "2012-01-11": 62.204327, "2012-01-12": 63.513889, "2012-01-13": 63.692467, "2012-01-16": 65.656822, "2012-01-17": 63.751999, "2012-01-18": 68.097389, "2012-01-19": 71.133179, "2012-01-20": 72.145111, "2012-01-23": 70.895065, "2012-01-24": 70.835541, "2012-01-25": 70.240295, "2012-01-26": 70.418877, "2012-01-27": 70.478394, "2012-01-30": 68.633102, "2012-01-31": 68.871201, "2012-02-01": 72.442741, "2012-02-02": 75.478554, "2012-02-03": 81.371597, "2012-02-06": 81.550163, "2012-02-07": 80.419189, "2012-02-08": 81.550163, "2012-02-09": 81.847794, "2012-02-10": 77.561943, "2012-02-13": 78.097679, "2012-02-14": 78.752464, "2012-02-15": 79.883438, "2012-02-16": 78.573883, "2012-02-17": 79.466782, "2012-02-20": 81.014427, "2012-02-21": 80.240616, "2012-02-22": 78.395302, "2012-02-23": 76.788109, "2012-02-24": 80.002495, "2012-02-27": 79.526299, "2012-02-28": 79.704865, "2012-02-29": 77.919106, "2012-03-01": 87.800362, "2012-03-02": 90.776642, "2012-03-05": 88.336098, "2012-03-06": 86.788445, "2012-03-07": 86.967026, "2012-03-08": 84.40741, "2012-03-09": 83.216896, "2012-03-12": 81.847794, "2012-03-13": 83.03833, "2012-03-14": 84.705032, "2012-03-15": 85.121719, "2012-03-16": 86.312233, "2012-03-19": 85.71698, "2012-03-20": 83.990738, "2012-03-21": 82.443069, "2012-03-22": 80.657295, "2012-03-23": 80.062019, "2012-03-26": 79.466782, "2012-03-27": 80.478699, "2012-03-28": 79.347717, "2012-03-29": 77.383362, "2012-03-30": 80.240616, "2012-04-02": 79.347717, "2012-04-03": 77.442894, "2012-04-04": 73.097527, "2012-04-05": 71.252235, "2012-04-10": 67.62117, "2012-04-11": 68.871201, "2012-04-12": 68.692627, "2012-04-13": 65.478241, "2012-04-16": 62.56147, "2012-04-17": 63.990093, "2012-04-18": 59.287571, "2012-04-19": 55.596973, "2012-04-20": 56.966068, "2012-04-23": 55.091019, "2012-04-24": 57.739906, "2012-04-25": 59.348286, "2012-04-26": 58.444355, "2012-04-27": 66.704491, "2012-04-30": 64.52256, "2012-05-01": 60.969151, "2012-05-02": 59.067757, "2012-05-03": 58.25732, "2012-05-04": 55.32732, "2012-05-08": 51.39986, "2012-05-09": 52.615494, "2012-05-10": 53.581791, "2012-05-11": 54.797428, "2012-05-14": 51.742729, "2012-05-15": 49.778999, "2012-05-16": 51.056992, "2012-05-17": 48.968582, "2012-05-18": 46.942513, "2012-05-21": 49.124432, "2012-05-22": 48.407516, "2012-05-23": 45.571014, "2012-05-24": 45.321644, "2012-05-25": 45.66452, "2012-05-29": 46.28793, "2012-05-30": 44.698246, "2012-05-31": 45.446331, "2012-06-01": 47.067188, "2012-06-06": 50.402405, "2012-06-07": 50.028362, "2012-06-08": 49.778999, "2012-06-11": 47.815269, "2012-06-12": 46.443783, "2012-06-13": 44.885265, "2012-06-14": 43.108555, "2012-06-15": 45.383987, "2012-06-18": 46.381435, "2012-06-19": 45.571014, "2012-06-20": 48.532185, "2012-06-21": 47.534733, "2012-06-22": 47.690586, "2012-06-25": 46.661972, "2012-06-26": 44.885265, "2012-06-27": 45.446331, "2012-06-28": 45.134624, "2012-06-29": 47.472404, "2012-07-02": 46.412609, "2012-07-03": 44.168343, "2012-07-04": 42.111103, "2012-07-05": 39.430454, "2012-07-06": 39.679821, "2012-07-09": 40.116196, "2012-07-10": 40.801949, "2012-07-11": 40.022686, "2012-07-12": 40.365562, "2012-07-13": 42.422798, "2012-07-16": 42.453976, "2012-07-17": 42.765678, "2012-07-18": 43.108555, "2012-07-19": 43.91898, "2012-07-20": 43.295574, "2012-07-23": 43.108555, "2012-07-24": 44.885265, "2012-07-25": 49.093258, "2012-07-26": 50.807625, "2012-07-27": 50.807625, "2012-07-30": 51.244007, "2012-07-31": 49.654327, "2012-08-01": 51.11932, "2012-08-02": 50.246548, "2012-08-03": 50.932301, "2012-08-06": 52.802521, "2012-08-07": 53.114223, "2012-08-08": 53.05188, "2012-08-09": 52.272629, "2012-08-10": 52.334969, "2012-08-13": 52.553158, "2012-08-14": 53.644123, "2012-08-15": 53.288422, "2012-08-16": 53.724659, "2012-08-17": 54.496464, "2012-08-20": 54.328682, "2012-08-21": 53.925999, "2012-08-22": 51.543453, "2012-08-23": 53.053528, "2012-08-24": 50.83876, "2012-08-28": 49.395809, "2012-08-29": 48.926022, "2012-08-30": 47.98642, "2012-08-31": 47.8522, "2012-09-03": 49.194477, "2012-09-04": 49.530048, "2012-09-05": 48.926022, "2012-09-06": 51.342113, "2012-09-07": 54.12735, "2012-09-10": 56.308548, "2012-09-11": 55.402504, "2012-09-12": 55.905865, "2012-09-13": 55.167599, "2012-09-14": 59.395782, "2012-09-17": 60.134033, "2012-09-18": 59.261559, "2012-09-19": 59.530006, "2012-09-20": 58.959538, "2012-09-21": 59.395782, "2012-09-24": 58.355511, "2012-09-25": 57.885719, "2012-09-26": 56.509884, "2012-09-27": 56.644108, "2012-09-28": 55.26828, "2012-10-01": 57.046795, "2012-10-02": 56.744778, "2012-10-03": 57.617264, "2012-10-04": 57.382359, "2012-10-05": 60.402485, "2012-10-08": 59.160881, "2012-10-09": 60.368919, "2012-10-10": 62.684353, "2012-10-11": 59.630695, "2012-10-12": 60.402485, "2012-10-15": 60.469601, "2012-10-16": 62.181019, "2012-10-17": 62.113899, "2012-10-18": 55.97298, "2012-10-19": 54.362247, "2012-10-22": 54.328682, "2012-10-23": 52.315269, "2012-10-24": 51.711246, "2012-10-25": 53.724659, "2012-10-26": 54.932713, "2012-10-29": 52.650848, "2012-10-30": 55.134056, "2012-10-31": 52.650848, "2012-11-01": 55.134056, "2012-11-02": 56.711216, "2012-11-05": 56.308548, "2012-11-06": 58.523312, "2012-11-07": 57.919281, "2012-11-08": 57.852161, "2012-11-09": 54.362247, "2012-11-12": 54.731361, "2012-11-13": 54.194454, "2012-11-14": 52.483055, "2012-11-15": 49.496487, "2012-11-16": 48.187767, "2012-11-19": 49.295139, "2012-11-20": 49.89917, "2012-11-21": 49.026699, "2012-11-22": 52.013252, "2012-11-23": 52.080364, "2012-11-26": 51.577019, "2012-11-27": 49.160915, "2012-11-28": 49.597153, "2012-11-29": 51.375671, "2012-11-30": 51.543453, "2012-12-03": 51.677689, "2012-12-04": 50.670982, "2012-12-05": 50.939434, "2012-12-06": 51.342113, "2012-12-07": 49.429363, "2012-12-10": 51.879028, "2012-12-11": 51.207893, "2012-12-12": 52.080364, "2012-12-13": 54.429367, "2012-12-14": 54.060238, "2012-12-17": 55.033386, "2012-12-18": 56.040081, "2012-12-19": 56.040081, "2012-12-20": 58.053516, "2012-12-21": 56.610565, "2012-12-24": 56.979683, "2012-12-27": 56.040081, "2012-12-28": 54.966278, "2012-12-31": 55.536739, "2013-01-02": 56.577, "2013-01-03": 57.986389, "2013-01-04": 57.449478, "2013-01-07": 58.791763, "2013-01-08": 60.100479, "2013-01-09": 60.738056, "2013-01-10": 61.140739, "2013-01-11": 62.281681, "2013-01-14": 62.516579, "2013-01-15": 62.315239, "2013-01-16": 62.717911, "2013-01-17": 64.462875, "2013-01-18": 64.697784, "2013-01-21": 65.301804, "2013-01-22": 64.697784, "2013-01-23": 62.550125, "2013-01-24": 63.758175, "2013-01-25": 63.254841, "2013-01-28": 62.583691, "2013-01-29": 61.778328, "2013-01-30": 60.268269, "2013-01-31": 59.362221, "2013-02-01": 60.738056, "2013-02-04": 59.664234, "2013-02-05": 60.905834, "2013-02-06": 63.825294, "2013-02-07": 64.563553, "2013-02-08": 65.704483, "2013-02-11": 67.650803, "2013-02-12": 70.53669, "2013-02-13": 72.885666, "2013-02-14": 74.563522, "2013-02-15": 72.214531, "2013-02-18": 73.556816, "2013-02-19": 73.154129, "2013-02-20": 71.543388, "2013-02-21": 70.603798, "2013-02-22": 71.878952, "2013-02-25": 71.476288, "2013-02-26": 68.389038, "2013-02-27": 69.127296, "2013-02-28": 67.315216, "2013-03-01": 64.798447, "2013-03-04": 64.496445, "2013-03-05": 65.771599, "2013-03-06": 66.845413, "2013-03-07": 66.744743, "2013-03-08": 66.778313, "2013-03-11": 65.268242, "2013-03-12": 65.905823, "2013-03-13": 68.590385, "2013-03-14": 69.664207, "2013-03-15": 67.315216, "2013-03-18": 67.449432, "2013-03-19": 65.838715, "2013-03-20": 64.798447, "2013-03-21": 64.160866, "2013-03-22": 63.221268, "2013-03-25": 62.684353, "2013-03-26": 62.852146, "2013-03-27": 60.771629, "2013-03-28": 59.83202, "2013-04-02": 59.429329, "2013-04-03": 60.570271, "2013-04-04": 59.966248, "2013-04-05": 58.623966, "2013-04-08": 59.127331, "2013-04-09": 62.885708, "2013-04-10": 65.570259, "2013-04-11": 69.999763, "2013-04-12": 70.066887, "2013-04-15": 71.274933, "2013-04-16": 71.476288, "2013-04-17": 70.872253, "2013-04-18": 70.670914, "2013-04-19": 71.610512, "2013-04-22": 71.207817, "2013-04-23": 72.55011, "2013-04-24": 75.573029, "2013-04-25": 76.663025, "2013-04-26": 75.93634, "2013-04-29": 74.919029, "2013-04-30": 74.265015, "2013-05-01": 77.026344, "2013-05-02": 77.244339, "2013-05-03": 87.199638, "2013-05-07": 91.196289, "2013-05-08": 89.96096, "2013-05-09": 90.17897, "2013-05-10": 91.341614, "2013-05-13": 90.542297, "2013-05-14": 88.362297, "2013-05-15": 90.760284, "2013-05-16": 91.922935, "2013-05-17": 95.556267, "2013-05-20": 95.846916, "2013-05-21": 97.663589, "2013-05-22": 97.009598, "2013-05-23": 90.760284, "2013-05-24": 90.17897, "2013-05-28": 91.123611, "2013-05-29": 89.088959, "2013-05-30": 88.725624, "2013-05-31": 83.929642, "2013-06-03": 82.548996, "2013-06-04": 84.656311, "2013-06-05": 70.522705, "2013-06-06": 68.379051, "2013-06-07": 68.960388, "2013-06-10": 67.470726, "2013-06-11": 62.674736, "2013-06-12": 63.910069, "2013-06-13": 63.946407, "2013-06-14": 64.128067, "2013-06-17": 65.290733, "2013-06-18": 65.072723, "2013-06-19": 63.510403, "2013-06-20": 57.152096, "2013-06-21": 57.261101, "2013-06-24": 58.896091, "2013-06-25": 59.804424, "2013-06-26": 61.512074, "2013-06-27": 59.586422, "2013-06-28": 60.45842, "2013-07-01": 62.275078, "2013-07-02": 61.911739, "2013-07-03": 60.53109, "2013-07-04": 61.548424, "2013-07-05": 61.512074, "2013-07-08": 63.546726, "2013-07-09": 65.363388, "2013-07-10": 65.7994, "2013-07-11": 66.92572, "2013-07-12": 66.816719, "2013-07-15": 64.128067, "2013-07-16": 64.673065, "2013-07-17": 64.782059, "2013-07-18": 63.728401, "2013-07-19": 64.382416, "2013-07-22": 64.200752, "2013-07-23": 63.837402, "2013-07-24": 63.437744, "2013-07-25": 62.493069, "2013-07-26": 60.785423, "2013-07-29": 60.095078, "2013-07-30": 58.387432, "2013-07-31": 58.351097, "2013-08-01": 60.712753, "2013-08-02": 66.489731, "2013-08-05": 68.924034, "2013-08-06": 66.707733, "2013-08-07": 65.835716, "2013-08-08": 66.889397, "2013-08-09": 67.180046, "2013-08-12": 64.418724, "2013-08-13": 63.219749, "2013-08-14": 65.124916, "2013-08-15": 62.900963, "2013-08-16": 63.308693, "2013-08-19": 62.900963, "2013-08-20": 62.085522, "2013-08-21": 60.417549, "2013-08-22": 62.789768, "2013-08-23": 64.050018, "2013-08-27": 61.677788, "2013-08-28": 61.381264, "2013-08-29": 61.492466, "2013-08-30": 60.380493, "2013-09-02": 62.085522, "2013-09-03": 62.085522, "2013-09-04": 63.271626, "2013-09-05": 63.345757, "2013-09-06": 64.49482, "2013-09-09": 66.014526, "2013-09-10": 65.755051, "2013-09-11": 65.680923, "2013-09-12": 65.236137, "2013-09-13": 65.050812, "2013-09-16": 66.236908, "2013-09-17": 66.533432, "2013-09-18": 66.236908, "2013-09-19": 66.385185, "2013-09-20": 65.124916, "2013-09-23": 63.790554, "2013-09-24": 63.160435, "2013-09-25": 61.937263, "2013-09-26": 64.680145, "2013-09-27": 63.93882, "2013-09-30": 62.196724, "2013-10-01": 61.603661, "2013-10-02": 60.121033, "2013-10-03": 59.527973, "2013-10-04": 60.306347, "2013-10-07": 59.3797, "2013-10-08": 58.082397, "2013-10-09": 58.490124, "2013-10-10": 58.564251, "2013-10-11": 58.378925, "2013-10-14": 58.34185, "2013-10-15": 62.048458, "2013-10-16": 61.455395, "2013-10-17": 63.642288, "2013-10-18": 64.420677, "2013-10-21": 64.976662, "2013-10-22": 66.385185, "2013-10-23": 65.310257, "2013-10-24": 67.052361, "2013-10-25": 66.941162, "2013-10-28": 65.977448, "2013-10-29": 67.460091, "2013-10-30": 66.941162, "2013-10-31": 65.977448, "2013-11-01": 65.829178, "2013-11-04": 65.680923, "2013-11-05": 64.050018, "2013-11-06": 64.865471, "2013-11-07": 64.346558, "2013-11-08": 63.790554, "2013-11-11": 64.49482, "2013-11-12": 63.012177, "2013-11-13": 61.751919, "2013-11-14": 61.937263, "2013-11-15": 61.603661, "2013-11-18": 62.863918, "2013-11-19": 62.196724, "2013-11-20": 61.900192, "2013-11-21": 61.640732, "2013-11-22": 62.567387, "2013-11-25": 63.790554, "2013-11-26": 63.827629, "2013-11-27": 64.902519, "2013-11-28": 65.829178, "2013-11-29": 65.755051, "2013-12-02": 64.49482, "2013-12-03": 63.531082, "2013-12-04": 63.605228, "2013-12-05": 62.938042, "2013-12-06": 63.308693, "2013-12-09": 62.530319, "2013-12-10": 62.122574, "2013-12-11": 61.158882, "2013-12-12": 59.639168, "2013-12-13": 60.009815, "2013-12-16": 60.788208, "2013-12-17": 59.639168, "2013-12-18": 60.121033, "2013-12-19": 60.454617, "2013-12-20": 61.307125, "2013-12-23": 62.64151, "2013-12-24": 62.863918, "2013-12-27": 63.716419, "2013-12-30": 63.419891, "2013-12-31": 63.012177, "2014-01-02": 63.753487, "2014-01-03": 64.383614, "2014-01-06": 64.235336, "2014-01-07": 64.791344, "2014-01-08": 65.16201, "2014-01-09": 63.827629, "2014-01-10": 64.383614, "2014-01-13": 66.496376, "2014-01-14": 65.643852, "2014-01-15": 66.385185, "2014-01-16": 66.385185, "2014-01-17": 65.08786, "2014-01-20": 65.08786, "2014-01-21": 63.901752, "2014-01-22": 64.124153, "2014-01-23": 63.234566, "2014-01-24": 61.158882, "2014-01-27": 61.047676, "2014-01-28": 62.048458, "2014-01-29": 61.381264, "2014-01-30": 61.381264, "2014-01-31": 60.565819, "2014-02-03": 60.083954, "2014-02-04": 60.269295, "2014-02-05": 60.639946, "2014-02-06": 61.937263, "2014-02-07": 62.789768, "2014-02-10": 61.974319, "2014-02-11": 62.678577, "2014-02-12": 62.456173, "2014-02-13": 60.973545, "2014-02-14": 61.195942, "2014-02-17": 61.270077, "2014-02-18": 61.900192, "2014-02-19": 61.71487, "2014-02-20": 61.270077, "2014-02-21": 61.78899, "2014-02-24": 62.530319, "2014-02-25": 62.493256, "2014-02-26": 62.344982, "2014-02-27": 71.240822, "2014-02-28": 76.874847, "2014-03-03": 73.909569, "2014-03-04": 75.169807, "2014-03-05": 74.947411, "2014-03-06": 78.654007, "2014-03-07": 78.728134, "2014-03-10": 77.912697, "2014-03-11": 77.54203, "2014-03-12": 75.911133, "2014-03-13": 78.579887, "2014-03-14": 75.392204, "2014-03-17": 75.392204, "2014-03-18": 76.13353, "2014-03-19": 78.579887, "2014-03-20": 78.357483, "2014-03-21": 78.950539, "2014-03-24": 76.281784, "2014-03-25": 76.355927, "2014-03-26": 73.427711, "2014-03-27": 75.540474, "2014-03-28": 73.353584, "2014-03-31": 75.021553, "2014-04-01": 74.725014, "2014-04-02": 75.318077, "2014-04-03": 75.540474, "2014-04-04": 79.098808, "2014-04-07": 79.098808, "2014-04-08": 76.355927, "2014-04-09": 77.54203, "2014-04-10": 78.431625, "2014-04-11": 76.652451, "2014-04-14": 74.576767, "2014-04-15": 72.649323, "2014-04-16": 73.872513, "2014-04-17": 74.725014, "2014-04-22": 76.430054, "2014-04-23": 76.498901, "2014-04-24": 76.957909, "2014-04-25": 74.395195, "2014-04-28": 74.624687, "2014-04-29": 75.389687, "2014-04-30": 75.389687, "2014-05-01": 75.810417, "2014-05-02": 76.231163, "2014-05-06": 75.160187, "2014-05-07": 75.580933, "2014-05-08": 77.034401, "2014-05-09": 74.662926, "2014-05-12": 74.203941, "2014-05-13": 72.673958, "2014-05-14": 73.171196, "2014-05-15": 68.810768, "2014-05-16": 69.002014, "2014-05-19": 69.307999, "2014-05-20": 69.384506, "2014-05-21": 71.296974, "2014-05-22": 72.023735, "2014-05-23": 72.214973, "2014-05-27": 71.87072, "2014-05-28": 72.520958, "2014-05-29": 76.154663, "2014-05-30": 76.728394, "2014-06-02": 78.028877, "2014-06-03": 76.804901, "2014-06-04": 75.657417, "2014-06-05": 76.498901, "2014-06-06": 78.258377, "2014-06-09": 78.640877, "2014-06-10": 78.946869, "2014-06-11": 77.799377, "2014-06-12": 78.793869, "2014-06-13": 77.799377, "2014-06-16": 77.952385, "2014-06-17": 76.804901, "2014-06-18": 75.848663, "2014-06-19": 80.400345, "2014-06-20": 79.558853, "2014-06-23": 78.870369, "2014-06-24": 78.181885, "2014-06-25": 77.187408, "2014-06-26": 77.340393, "2014-06-27": 78.181885, "2014-06-30": 80.476852, "2014-07-01": 81.853828, "2014-07-02": 82.083321, "2014-07-03": 87.055756, "2014-07-04": 86.367256, "2014-07-07": 86.596764, "2014-07-08": 85.831764, "2014-07-09": 85.984779, "2014-07-10": 85.52578, "2014-07-11": 85.52578, "2014-07-14": 86.902756, "2014-07-15": 86.520271, "2014-07-16": 88.509232, "2014-07-17": 90.345207, "2014-07-18": 91.263184, "2014-07-21": 90.804184, "2014-07-22": 92.181183, "2014-07-23": 93.940666, "2014-07-24": 94.858643, "2014-07-25": 95.317635, "2014-07-28": 96.082634, "2014-07-29": 96.388618, "2014-07-30": 96.465111, "2014-07-31": 91.033684, "2014-08-01": 89.350723, "2014-08-04": 92.563675, "2014-08-05": 89.274223, "2014-08-06": 87.285248, "2014-08-07": 85.908279, "2014-08-08": 83.995789, "2014-08-11": 85.372772, "2014-08-12": 85.678772, "2014-08-13": 87.687294, "2014-08-14": 88.625137, "2014-08-15": 87.374695, "2014-08-18": 88.703285, "2014-08-19": 90.422638, "2014-08-20": 88.859589, "2014-08-21": 89.953728, "2014-08-22": 90.266335, "2014-08-26": 92.063843, "2014-08-27": 94.95549, "2014-08-28": 92.37645, "2014-08-29": 92.610909, "2014-09-01": 92.298302, "2014-09-02": 94.173965, "2014-09-03": 95.502571, "2014-09-04": 96.205948, "2014-09-05": 96.205948, "2014-09-08": 94.642891, "2014-09-09": 93.314285, "2014-09-10": 93.001686, "2014-09-11": 93.548752, "2014-09-12": 95.893326, "2014-09-15": 94.642891, "2014-09-16": 94.173965, "2014-09-17": 95.033653, "2014-09-18": 96.205948, "2014-09-19": 96.205948, "2014-09-22": 95.34626, "2014-09-23": 94.330276, "2014-09-24": 93.939499, "2014-09-25": 93.079826, "2014-09-26": 93.157997, "2014-09-29": 93.861351, "2014-09-30": 92.845375, "2014-10-01": 92.37645, "2014-10-02": 88.546982, "2014-10-03": 90.110023, "2014-10-06": 90.578957, "2014-10-07": 90.422638, "2014-10-08": 93.236137, "2014-10-09": 93.314285, "2014-10-10": 89.172195, "2014-10-13": 88.937744, "2014-10-14": 89.406654, "2014-10-15": 84.639351, "2014-10-16": 87.296532, "2014-10-17": 92.141998, "2014-10-20": 92.220146, "2014-10-21": 92.610909, "2014-10-22": 94.721039, "2014-10-23": 94.721039, "2014-10-24": 93.861351, "2014-10-27": 92.454613, "2014-10-28": 93.470604, "2014-10-29": 93.392456, "2014-10-30": 93.939499, "2014-10-31": 96.753006, "2014-11-03": 96.440414, "2014-11-04": 101.442169, "2014-11-05": 103.552277, "2014-11-06": 103.083374, "2014-11-07": 101.051414, "2014-11-10": 104.568275, "2014-11-11": 105.115356, "2014-11-12": 103.943054, "2014-11-13": 106.053185, "2014-11-14": 105.896858, "2014-11-17": 105.506111, "2014-11-18": 105.818703, "2014-11-19": 104.880898, "2014-11-20": 106.209473, "2014-11-21": 106.834709, "2014-11-24": 109.02298, "2014-11-25": 110.976814, "2014-11-26": 111.680161, "2014-11-27": 112.070923, "2014-11-28": 111.836472, "2014-12-01": 109.648186, "2014-12-02": 113.790291, "2014-12-03": 113.165077, "2014-12-04": 114.337364, "2014-12-05": 115.978554, "2014-12-08": 117.150841, "2014-12-09": 116.525635, "2014-12-10": 117.541634, "2014-12-11": 116.525635, "2014-12-12": 110.976814, "2014-12-15": 110.038963, "2014-12-16": 113.086922, "2014-12-17": 116.91642, "2014-12-18": 118.010529, "2014-12-19": 121.527405, "2014-12-22": 123.012291, "2014-12-23": 123.55938, "2014-12-24": 123.871986, "2014-12-29": 123.55938, "2014-12-30": 123.16861, "2014-12-31": 125.435036, "2015-01-02": 125.74765, "2015-01-05": 129.264511, "2015-01-06": 125.435036, "2015-01-07": 125.200584, "2015-01-08": 127.388863, "2015-01-09": 126.13839, "2015-01-12": 126.372887, "2015-01-13": 126.60733, "2015-01-14": 126.216568, "2015-01-15": 123.637527, "2015-01-16": 126.060265, "2015-01-19": 125.982101, "2015-01-20": 126.216568, "2015-01-21": 134.500748, "2015-01-22": 134.188141, "2015-01-23": 137.001633, "2015-01-26": 140.284042, "2015-01-27": 138.95546, "2015-01-28": 140.518509, "2015-01-29": 141.925247, "2015-01-30": 140.049606, "2015-02-02": 138.720993, "2015-02-03": 140.987427, "2015-02-04": 140.440323, "2015-02-05": 137.157944, "2015-02-06": 137.157944, "2015-02-09": 131.296478, "2015-02-10": 134.969681, "2015-02-11": 135.829361, "2015-02-12": 135.125977, "2015-02-13": 135.594879, "2015-02-16": 134.657059, "2015-02-17": 138.877319, "2015-02-18": 140.362198, "2015-02-19": 143.566467, "2015-02-20": 146.848862, "2015-02-23": 148.333786, "2015-02-24": 148.880844, "2015-02-25": 147.786697, "2015-02-26": 147.083313, "2015-02-27": 149.740524, "2015-03-02": 150.834656, "2015-03-03": 148.646408, "2015-03-04": 149.506058, "2015-03-05": 151.616196, "2015-03-06": 152.006958, "2015-03-09": 148.411911, "2015-03-10": 148.255646, "2015-03-11": 150.990982, "2015-03-12": 153.804459, "2015-03-13": 152.31955, "2015-03-16": 154.585983, "2015-03-17": 154.11705, "2015-03-18": 155.289352, "2015-03-19": 160.447449, "2015-03-20": 160.134811, "2015-03-23": 162.635712, "2015-03-24": 165.371063, "2015-03-25": 162.948303, "2015-03-26": 157.165024, "2015-03-27": 159.118835, "2015-03-30": 159.744049, "2015-03-31": 159.275162, "2015-04-01": 159.431473, "2015-04-02": 162.557541, "2015-04-07": 162.713882, "2015-04-08": 163.651703, "2015-04-09": 167.40303, "2015-04-10": 170.060226, "2015-04-13": 168.653458, "2015-04-14": 165.527359, "2015-04-15": 165.371063, "2015-04-16": 163.808014, "2015-04-17": 162.948303, "2015-04-20": 165.371063, "2015-04-21": 167.481186, "2015-04-22": 166.934097, "2015-04-23": 169.760788, "2015-04-24": 166.177658, "2015-04-27": 168.088684, "2015-04-28": 162.435287, "2015-04-29": 162.753769, "2015-04-30": 153.517288, "2015-05-01": 154.632019, "2015-05-05": 146.112137, "2015-05-06": 137.67186, "2015-05-07": 142.528992, "2015-05-08": 141.493866, "2015-05-11": 145.395508, "2015-05-12": 140.37915, "2015-05-13": 134.964615, "2015-05-14": 138.54776, "2015-05-15": 139.901398, "2015-05-18": 139.662521, "2015-05-19": 141.016159, "2015-05-20": 142.05127, "2015-05-21": 142.847504, "2015-05-22": 143.404877, "2015-05-26": 141.33461, "2015-05-27": 142.05127, "2015-05-28": 143.006744, "2015-05-29": 142.130875, "2015-06-01": 145.87326, "2015-06-02": 144.519638, "2015-06-03": 145.395508, "2015-06-04": 141.891998, "2015-06-05": 140.299515, "2015-06-08": 135.362747, "2015-06-09": 133.849854, "2015-06-10": 134.805359, "2015-06-11": 134.884979, "2015-06-12": 131.779602, "2015-06-15": 128.196472, "2015-06-16": 131.222229, "2015-06-17": 129.709351, "2015-06-18": 130.346344, "2015-06-19": 129.151978, "2015-06-22": 134.088745, "2015-06-23": 135.92009, "2015-06-24": 135.123856, "2015-06-25": 134.16835, "2015-06-26": 131.301865, "2015-06-29": 126.285477, "2015-06-30": 124.931862, "2015-07-01": 126.285477, "2015-07-02": 121.985741, "2015-07-03": 121.269104, "2015-07-06": 117.048973, "2015-07-07": 111.95295, "2015-07-08": 111.315941, "2015-07-09": 117.92485, "2015-07-10": 121.348724, "2015-07-13": 125.568863, "2015-07-14": 120.233971, "2015-07-15": 120.950577, "2015-07-16": 121.50798, "2015-07-17": 121.10984, "2015-07-20": 125.887337, "2015-07-21": 123.020859, "2015-07-22": 121.50798, "2015-07-23": 123.896721, "2015-07-24": 121.58757, "2015-07-27": 118.561844, "2015-07-28": 120.233971, "2015-07-29": 129.311203, "2015-07-30": 127.798355, "2015-07-31": 129.709351, "2015-08-03": 132.735107, "2015-08-04": 137.432999, "2015-08-05": 138.627396, "2015-08-06": 137.353363, "2015-08-07": 133.451752, "2015-08-10": 134.884979, "2015-08-11": 132.33696, "2015-08-12": 126.763222, "2015-08-13": 133.332153, "2015-08-14": 132.518158, "2015-08-17": 132.680969, "2015-08-18": 133.576355, "2015-08-19": 133.413559, "2015-08-20": 131.134354, "2015-08-21": 123.889809, "2015-08-24": 118.924469, "2015-08-25": 124.378235, "2015-08-26": 130.320389, "2015-08-27": 131.459946, "2015-08-28": 131.134354, "2015-09-01": 122.261841, "2015-09-02": 121.692039, "2015-09-03": 130.48317, "2015-09-04": 128.366806, "2015-09-07": 128.773788, "2015-09-08": 131.215775, "2015-09-09": 135.122925, "2015-09-10": 133.983337, "2015-09-11": 131.378571, "2015-09-14": 133.494949, "2015-09-15": 132.925156, "2015-09-16": 134.878754, "2015-09-17": 134.227539, "2015-09-18": 129.424988, "2015-09-21": 130.238983, "2015-09-22": 125.517815, "2015-09-23": 126.494591, "2015-09-24": 125.029427, "2015-09-25": 130.401779, "2015-09-28": 126.576004, "2015-09-29": 120.959457, "2015-09-30": 124.703835, "2015-10-01": 123.564232, "2015-10-02": 124.622437, "2015-10-05": 131.215775, "2015-10-06": 133.494949, "2015-10-07": 126.820206, "2015-10-08": 127.796974, "2015-10-09": 122.506035, "2015-10-12": 126.087585, "2015-10-13": 124.134026, "2015-10-14": 123.075829, "2015-10-15": 129.424988, "2015-10-16": 128.203995, "2015-10-19": 127.634193, "2015-10-20": 127.715599, "2015-10-21": 128.366806, "2015-10-22": 129.832001, "2015-10-23": 135.448517, "2015-10-26": 133.576355, "2015-10-27": 132.925156, "2015-10-28": 135.611343, "2015-10-29": 135.041534, "2015-10-30": 136.018356, "2015-11-02": 134.227539, "2015-11-03": 133.739136, "2015-11-04": 132.518158, "2015-11-05": 133.087952, "2015-11-06": 136.099716, "2015-11-09": 134.064758, "2015-11-10": 133.901947, "2015-11-11": 136.262543, "2015-11-12": 131.378571, "2015-11-13": 130.238983, "2015-11-16": 131.052979, "2015-11-17": 133.494949, "2015-11-18": 133.494949, "2015-11-19": 135.122925, "2015-11-20": 135.448517, "2015-11-23": 132.680969, "2015-11-24": 129.506393, "2015-11-25": 130.48317, "2015-11-26": 131.541367, "2015-11-27": 132.273972, "2015-11-30": 132.84375, "2015-12-01": 134.308945, "2015-12-02": 135.692719, "2015-12-03": 133.250748, "2015-12-04": 132.680969, "2015-12-07": 136.262543, "2015-12-08": 131.622757, "2015-12-09": 132.925156, "2015-12-10": 129.913406, "2015-12-11": 124.866615, "2015-12-14": 125.517815, "2015-12-15": 129.587769, "2015-12-16": 130.645966, "2015-12-17": 137.646317, "2015-12-18": 138.297485, "2015-12-21": 137.157928, "2015-12-22": 137.890518, "2015-12-23": 140.495285, "2015-12-24": 140.820892, "2015-12-29": 143.018692, "2015-12-30": 142.77449, "2015-12-31": 142.855881, "2016-01-04": 139.355698, "2016-01-05": 140.006912, "2016-01-06": 137.320724, "2016-01-07": 131.948364, "2016-01-08": 130.890182, "2016-01-11": 130.890182, "2016-01-12": 132.76236, "2016-01-13": 132.76236, "2016-01-14": 128.855194, "2016-01-15": 123.564232, "2016-01-18": 122.587433, "2016-01-19": 126.7388, "2016-01-20": 122.261841, "2016-01-21": 126.250404, "2016-01-22": 128.041199, "2016-01-25": 126.576004, "2016-01-26": 126.820206, "2016-01-27": 129.018005, "2016-01-28": 127.715599, "2016-01-29": 132.355377, "2016-02-01": 131.378571, "2016-02-02": 129.180786, "2016-02-03": 125.762032, "2016-02-04": 125.680626, "2016-02-05": 123.401443, "2016-02-08": 117.377876, "2016-02-09": 115.180099, "2016-02-10": 119.005859, "2016-02-11": 124.45961, "2016-02-12": 123.727051, "2016-02-15": 128.366806, "2016-02-16": 127.471405, "2016-02-17": 131.29718, "2016-02-18": 129.75058, "2016-02-19": 128.529587, "2016-02-22": 131.541367, "2016-02-23": 131.459946, "2016-02-24": 121.692039, "2016-02-25": 126.983009, "2016-02-26": 126.250404, "2016-02-29": 125.680626, "2016-03-01": 127.715599, "2016-03-02": 128.203995, "2016-03-03": 127.715599, "2016-03-04": 127.471405, "2016-03-07": 126.250404, "2016-03-08": 123.401443, "2016-03-09": 123.645622, "2016-03-10": 121.692039, "2016-03-11": 122.994423, "2016-03-14": 123.727051, "2016-03-15": 123.157242, "2016-03-16": 124.134026, "2016-03-17": 123.320038, "2016-03-18": 122.587433, "2016-03-21": 123.564232, "2016-03-22": 124.215446, "2016-03-23": 124.703835, "2016-03-24": 123.482819, "2016-03-29": 123.889809, "2016-03-30": 126.087585, "2016-03-31": 124.134026, "2016-04-01": 123.727051, "2016-04-04": 124.05262, "2016-04-05": 119.412849, "2016-04-06": 122.587433, "2016-04-07": 120.471054, "2016-04-08": 121.610649, "2016-04-11": 121.285042, "2016-04-12": 121.692039, "2016-04-13": 123.320038, "2016-04-14": 123.320038, "2016-04-15": 132.192535, "2016-04-18": 131.29718, "2016-04-19": 129.994766, "2016-04-20": 128.773788, "2016-04-21": 129.023331, "2016-04-22": 126.028618, "2016-04-25": 126.860466, "2016-04-26": 126.44455, "2016-04-27": 126.94368, "2016-04-28": 125.612679, "2016-04-29": 122.784309, "2016-05-03": 119.623199, "2016-05-04": 118.624954, "2016-05-05": 118.458565, "2016-05-06": 108.226555, "2016-05-09": 108.559296, "2016-05-10": 109.058426, "2016-05-11": 107.644226, "2016-05-12": 106.978737, "2016-05-13": 107.394676, "2016-05-16": 108.143356, "2016-05-17": 108.808868, "2016-05-18": 109.890305, "2016-05-19": 107.893799, "2016-05-20": 109.141609, "2016-05-23": 111.304466, "2016-05-24": 111.720421, "2016-05-25": 112.136353, "2016-05-26": 111.886787, "2016-05-27": 113.550522, "2016-05-31": 109.723915, "2016-06-01": 109.307968, "2016-06-02": 110.139854, "2016-06-03": 110.638977, "2016-06-06": 111.803589, "2016-06-07": 106.895554, "2016-06-08": 106.645981, "2016-06-09": 105.814125, "2016-06-10": 103.068947, "2016-06-13": 100.490135, "2016-06-14": 95.332527, "2016-06-15": 94.001534, "2016-06-16": 94.001534, "2016-06-17": 97.162651, "2016-06-20": 101.238823, "2016-06-21": 100.323769, "2016-06-22": 102.070694, "2016-06-23": 104.399933, "2016-06-24": 95.582092, "2016-06-27": 91.422737, "2016-06-28": 94.084724, "2016-06-29": 93.751976, "2016-06-30": 96.247589, "2016-07-01": 97.744957, "2016-07-04": 95.498909, "2016-07-05": 89.25988, "2016-07-06": 90.424492, "2016-07-07": 92.67054, "2016-07-08": 95.582092, "2016-07-11": 98.743202, "2016-07-12": 102.985756, "2016-07-13": 100.656509, "2016-07-14": 101.737946, "2016-07-15": 100.406944, "2016-07-18": 102.237076, "2016-07-19": 101.737946, "2016-07-20": 102.070694, "2016-07-21": 102.736198, "2016-07-22": 100.656509, "2016-07-25": 101.821129, "2016-07-26": 93.835167, "2016-07-27": 97.329018, "2016-07-28": 95.332527, "2016-07-29": 96.497154, "2016-08-01": 95.582092, "2016-08-02": 94.1679, "2016-08-03": 94.417473, "2016-08-04": 94.750221, "2016-08-05": 96.58033, "2016-08-08": 97.82814, "2016-08-09": 97.162651, "2016-08-10": 96.746719, "2016-08-11": 97.372429, "2016-08-12": 99.943893, "2016-08-15": 100.115318, "2016-08-16": 98.572449, "2016-08-17": 95.743843, "2016-08-18": 96.686714, "2016-08-19": 95.915276, "2016-08-22": 95.829559, "2016-08-23": 95.658134, "2016-08-24": 95.572418, "2016-08-25": 94.28669, "2016-08-26": 94.029533, "2016-08-30": 92.829529, "2016-08-31": 93.172394, "2016-09-01": 95.572418, "2016-09-02": 97.372429, "2016-09-05": 97.458138, "2016-09-06": 97.972443, "2016-09-07": 98.229584, "2016-09-08": 99.85817, "2016-09-09": 99.429596, "2016-09-12": 100.201035, "2016-09-13": 101.658195, "2016-09-14": 99.00103, "2016-09-15": 98.829597, "2016-09-16": 97.458138, "2016-09-19": 99.172447, "2016-09-20": 98.401016, "2016-09-21": 98.658165, "2016-09-22": 99.686745, "2016-09-23": 98.572449, "2016-09-26": 97.715294, "2016-09-27": 95.915276, "2016-09-28": 97.029564, "2016-09-29": 96.600998, "2016-09-30": 96.515274, "2016-10-03": 99.00103, "2016-10-04": 101.058182, "2016-10-05": 100.886757, "2016-10-06": 99.258171, "2016-10-07": 97.201004, "2016-10-10": 97.458138, "2016-10-11": 97.543861, "2016-10-12": 97.715294, "2016-10-13": 93.172394, "2016-10-14": 106.029663, "2016-10-17": 105.429665, "2016-10-18": 107.143967, "2016-10-19": 104.829651, "2016-10-20": 105.515381, "2016-10-21": 105.258232, "2016-10-24": 107.143967, "2016-10-25": 107.486824, "2016-10-26": 108.001106, "2016-10-27": 107.743965, "2016-10-28": 108.515411, "2016-10-31": 106.88681, "2016-11-01": 106.715385, "2016-11-02": 103.543922, "2016-11-03": 103.458206, "2016-11-04": 101.829628, "2016-11-07": 104.401077, "2016-11-08": 104.572502, "2016-11-09": 106.458237, "2016-11-10": 108.258255, "2016-11-11": 105.429665, "2016-11-14": 108.943985, "2016-11-15": 109.629707, "2016-11-16": 107.401108, "2016-11-17": 105.515381, "2016-11-18": 107.486824, "2016-11-21": 105.772514, "2016-11-22": 106.972534, "2016-11-23": 106.372528, "2016-11-24": 105.258232, "2016-11-25": 106.115379, "2016-11-28": 101.229614, "2016-11-29": 100.286743, "2016-11-30": 97.201004, "2016-12-01": 98.915314, "2016-12-02": 97.972443, "2016-12-05": 96.600998, "2016-12-06": 96.686714, "2016-12-07": 98.058151, "2016-12-08": 97.972443, "2016-12-09": 98.14386, "2016-12-12": 99.85817, "2016-12-13": 101.743904, "2016-12-14": 101.401039, "2016-12-15": 103.115349, "2016-12-16": 103.715355, "2016-12-19": 102.943916, "2016-12-20": 103.629639, "2016-12-21": 103.715355, "2016-12-22": 103.715355, "2016-12-23": 103.372498, "2016-12-28": 103.115349, "2016-12-29": 101.743904, "2016-12-30": 101.401039, "2017-01-03": 103.715355, "2017-01-04": 106.286812, "2017-01-05": 108.001106, "2017-01-06": 106.458237, "2017-01-09": 105.0868, "2017-01-10": 103.801064, "2017-01-11": 105.686813, "2017-01-12": 106.972534, "2017-01-13": 108.601112, "2017-01-16": 107.915398, "2017-01-17": 106.543961, "2017-01-18": 106.801102, "2017-01-19": 107.229668, "2017-01-20": 107.315392, "2017-01-23": 107.486824, "2017-01-24": 108.343979, "2017-01-25": 113.744026, "2017-01-26": 114.258316, "2017-01-27": 113.744026, "2017-01-30": 113.315453, "2017-01-31": 114.001175, "2017-02-01": 117.429787, "2017-02-02": 117.086922, "2017-02-03": 118.629784, "2017-02-06": 116.744064, "2017-02-07": 117.429787, "2017-02-08": 117.772636, "2017-02-09": 118.544083, "2017-02-10": 117.601204, "2017-02-13": 119.144073, "2017-02-14": 119.058365, "2017-02-15": 120.001236, "2017-02-16": 120.858391, "2017-02-17": 121.544113, "2017-02-20": 123.001282, "2017-02-21": 123.429855, "2017-02-22": 123.601273, "2017-02-23": 124.972725, "2017-02-24": 124.115585, "2017-02-27": 124.372719, "2017-02-28": 125.487007, "2017-03-01": 123.001282, "2017-03-02": 121.029816, "2017-03-03": 121.286964, "2017-03-06": 123.944145, "2017-03-07": 124.287003, "2017-03-08": 124.801292, "2017-03-09": 126.086998, "2017-03-10": 126.601311, "2017-03-13": 126.858452, "2017-03-14": 125.744148, "2017-03-15": 124.715561, "2017-03-16": 126.172729, "2017-03-17": 125.31559, "2017-03-20": 125.229874, "2017-03-21": 123.515549, "2017-03-22": 122.486969, "2017-03-23": 123.258423, "2017-03-24": 123.515549, "2017-03-27": 121.972694, "2017-03-28": 122.744118, "2017-03-29": 124.029846, "2017-03-30": 125.487007, "2017-03-31": 126.258446, "2017-04-03": 124.544151, "2017-04-04": 125.487007, "2017-04-05": 125.401276, "2017-04-06": 123.858421, "2017-04-07": 124.715561, "2017-04-10": 125.229874, "2017-04-11": 125.144142, "2017-04-12": 125.658447, "2017-04-13": 125.572723, "2017-04-18": 124.372719, "2017-04-19": 123.772697, "2017-04-20": 132.582214, "2017-04-21": 131.175507, "2017-04-24": 134.956009, "2017-04-25": 134.780197, "2017-04-26": 135.747299, "2017-04-27": 135.483551, "2017-04-28": 135.131866, "2017-05-02": 136.362747, "2017-05-03": 135.483551, "2017-05-04": 137.066101, "2017-05-05": 137.329834, "2017-05-08": 137.241943, "2017-05-09": 136.802338, "2017-05-10": 138.736557, "2017-05-11": 139.088242, "2017-05-12": 141.286224, "2017-05-15": 141.725815, "2017-05-16": 139.967422, "2017-05-17": 137.154022, "2017-05-18": 135.39563, "2017-05-19": 136.890228, "2017-05-22": 136.626495, "2017-05-23": 137.241943, "2017-05-24": 137.593597, "2017-05-25": 138.033203, "2017-05-26": 138.121124, "2017-05-30": 138.472794, "2017-05-31": 138.296967, "2017-06-01": 139.088242, "2017-06-02": 139.352005, "2017-06-05": 137.329834, "2017-06-06": 134.956009, "2017-06-07": 135.835236, "2017-06-08": 136.362747, "2017-06-09": 136.802338, "2017-06-12": 136.450668, "2017-06-13": 138.209061, "2017-06-14": 135.131866, "2017-06-15": 133.373505, "2017-06-16": 132.758057, "2017-06-19": 133.813065, "2017-06-20": 133.813065, "2017-06-21": 132.845978, "2017-06-22": 132.318436, "2017-06-23": 138.296967, "2017-06-26": 139.517273, "2017-06-27": 138.991531, "2017-06-28": 138.472794, "2017-06-29": 137.066101, "2017-06-30": 136.098969, "2017-07-03": 135.923141, "2017-07-04": 136.098969, "2017-07-05": 136.714417, "2017-07-06": 136.890228, "2017-07-07": 134.428513, "2017-07-10": 135.131866, "2017-07-11": 130.735886, "2017-07-12": 132.142609, "2017-07-13": 133.725159, "2017-07-14": 134.076843, "2017-07-17": 134.076843, "2017-07-18": 135.307709, "2017-07-19": 135.571457, "2017-07-20": 136.098969, "2017-07-21": 135.39563, "2017-07-24": 134.956009, "2017-07-25": 136.098969, "2017-07-26": 137.154022, "2017-07-27": 138.824478, "2017-07-28": 136.538574, "2017-07-31": 140.670776, "2017-08-01": 148.231827, "2017-08-02": 147.352661, "2017-08-03": 147.440552, "2017-08-04": 147.704315, "2017-08-07": 147.088882, "2017-08-08": 148.583511, "2017-08-09": 145.506348, "2017-08-10": 143.660049, "2017-08-11": 141.198303, "2017-08-14": 142.956696, "2017-08-15": 143.572128, "2017-08-16": 147.616394, "2017-08-17": 147.607422, "2017-08-18": 148.237061, "2017-08-21": 148.596863, "2017-08-22": 150.215942, "2017-08-23": 150.755646, "2017-08-24": 151.115433, "2017-08-25": 150.935547, "2017-08-29": 147.787308, "2017-08-30": 148.237061, "2017-08-31": 150.575745, "2017-09-01": 151.835037, "2017-09-04": 149.406403, "2017-09-05": 149.0466, "2017-09-06": 148.237061, "2017-09-07": 147.877258, "2017-09-08": 148.416946, "2017-09-11": 149.586304, "2017-09-12": 149.946091, "2017-09-13": 149.676224, "2017-09-14": 148.057144, "2017-09-15": 147.067688, "2017-09-18": 147.067688, "2017-09-19": 146.617966, "2017-09-20": 148.057144, "2017-09-21": 149.226486, "2017-09-22": 149.856155, "2017-09-25": 149.0466, "2017-09-26": 148.686798, "2017-09-27": 150.036041, "2017-09-28": 149.496338, "2017-09-29": 151.025482, "2017-10-02": 151.115433, "2017-10-03": 153.723984, "2017-10-04": 152.284775, "2017-10-05": 152.914444, "2017-10-06": 153.723984, "2017-10-09": 158.761169, "2017-10-10": 161.459656, "2017-10-11": 160.110413, "2017-10-12": 161.909393, "2017-10-13": 167.396332, "2017-10-16": 169.375229, "2017-10-17": 168.385773, "2017-10-18": 170.094818, "2017-10-19": 170.004868, "2017-10-20": 171.893814, "2017-10-23": 171.084274, "2017-10-24": 170.364685, "2017-10-25": 169.735016, "2017-10-26": 171.713913, "2017-10-27": 170.724472, "2017-10-30": 174.682236, "2017-10-31": 174.142548, "2017-11-01": 174.952103, "2017-11-02": 174.142548, "2017-11-03": 175.131989, "2017-11-06": 173.782745, "2017-11-07": 173.69281, "2017-11-08": 173.512894, "2017-11-09": 170.634521, "2017-11-10": 171.444077, "2017-11-13": 169.735016, "2017-11-14": 172.613403, "2017-11-15": 171.174225, "2017-11-16": 174.862137, "2017-11-17": 173.962646, "2017-11-20": 174.682236, "2017-11-21": 176.751099, "2017-11-22": 175.761642, "2017-11-23": 175.941559, "2017-11-24": 176.301346, "2017-11-27": 175.042053, "2017-11-28": 175.581741, "2017-11-29": 178.819946, "2017-11-30": 178.190292, "2017-12-01": 176.121445, "2017-12-04": 176.301346, "2017-12-05": 176.391312, "2017-12-06": 177.920441, "2017-12-07": 177.200851, "2017-12-08": 178.72998, "2017-12-11": 179.539536, "2017-12-12": 180.439026, "2017-12-13": 183.317429, "2017-12-14": 183.227478, "2017-12-15": 181.87822, "2017-12-18": 184.39682, "2017-12-19": 183.767166, "2017-12-20": 183.407349, "2017-12-21": 183.947083, "2017-12-22": 184.39682, "2017-12-27": 185.656113, "2017-12-28": 185.116425, "2017-12-29": 186.0159, "2018-01-02": 186.10585, "2018-01-03": 186.645554, "2018-01-04": 189.254105, "2018-01-05": 190.693298, "2018-01-08": 191.053085, "2018-01-09": 191.952591, "2018-01-10": 192.222427, "2018-01-11": 192.942032, "2018-01-12": 190.873184, "2018-01-15": 192.762131, "2018-01-16": 192.492279, "2018-01-17": 191.592789, "2018-01-18": 192.042526, "2018-01-19": 193.121933, "2018-01-22": 191.772675, "2018-01-23": 191.322922, "2018-01-24": 191.592789, "2018-01-25": 192.042526, "2018-01-26": 195.010864, "2018-01-29": 195.820435, "2018-01-30": 195.190781, "2018-01-31": 195.370667, "2018-02-01": 194.111389, "2018-02-02": 191.592789, "2018-02-05": 187.005341, "2018-02-06": 174.862137, "2018-02-07": 180.798828, "2018-02-08": 170.724472, "2018-02-09": 165.732254, "2018-02-12": 167.756134, "2018-02-13": 166.271957, "2018-02-14": 165.597351, "2018-02-15": 166.541794, "2018-02-16": 166.406891, "2018-02-19": 166.047104, "2018-02-20": 166.811661, "2018-02-21": 167.711166, "2018-02-22": 167.801117, "2018-02-23": 161.144821, "2018-02-26": 160.740051, "2018-02-27": 162.853882, "2018-02-28": 154.488556, "2018-03-01": 147.517456, "2018-03-02": 145.268707, "2018-03-05": 148.821716, "2018-03-06": 149.36142, "2018-03-07": 149.766205, "2018-03-08": 151.835037, "2018-03-09": 155.118195, "2018-03-12": 157.771713, "2018-03-13": 153.99382, "2018-03-14": 152.914444, "2018-03-15": 154.578506, "2018-03-16": 156.422455, "2018-03-19": 156.107666, "2018-03-20": 158.761169, "2018-03-21": 157.996582, "2018-03-22": 155.792816, "2018-03-23": 154.263672, "2018-03-26": 153.139297, "2018-03-27": 155.343079, "2018-03-28": 153.9039, "2018-03-29": 154.353622, "2018-04-03": 152.644562, "2018-04-04": 152.329758, "2018-04-05": 157.187042, "2018-04-06": 158.896072, "2018-04-09": 157.411911, "2018-04-10": 158.896072, "2018-04-11": 157.861664, "2018-04-12": 170.454636, "2018-04-13": 168.610641, "2018-04-16": 166.496841, "2018-04-17": 164.383011, "2018-04-18": 164.697845, "2018-04-19": 165.282516, "2018-04-20": 165.732254, "2018-04-23": 167.351349, "2018-04-24": 165.957123, "2018-04-25": 162.584015, "2018-04-26": 163.80867, "2018-04-27": 164.407196, "2018-04-30": 166.847275, "2018-05-01": 169.103226, "2018-05-02": 170.622528, "2018-05-03": 167.031433, "2018-05-04": 169.379456, "2018-05-08": 173.384903, "2018-05-09": 175.042328, "2018-05-10": 176.791824, "2018-05-11": 176.423523, "2018-05-14": 175.042328, "2018-05-15": 176.791824, "2018-05-16": 177.11412, "2018-05-17": 179.554184, "2018-05-18": 177.436386, "2018-05-21": 177.94281, "2018-05-22": 180.751221, "2018-05-23": 176.56163, "2018-05-24": 175.042328, "2018-05-25": 174.627975, "2018-05-29": 168.090347, "2018-05-30": 167.583908, "2018-05-31": 167.307678, "2018-06-01": 170.484406, "2018-06-04": 171.865585, "2018-06-05": 171.128967, "2018-06-06": 173.661148, "2018-06-07": 173.246765, "2018-06-08": 170.300247, "2018-06-11": 172.924515, "2018-06-12": 173.154709, "2018-06-13": 173.845291, "2018-06-14": 175.410645, "2018-06-15": 170.208191, "2018-06-18": 168.734909, "2018-06-19": 167.99826, "2018-06-20": 170.760651, "2018-06-21": 168.688873, "2018-06-22": 172.325989, "2018-06-25": 166.663132, "2018-06-26": 167.307678, "2018-06-27": 167.583908, "2018-06-28": 161.736893, "2018-06-29": 162.611649, "2018-07-02": 161.138382, "2018-07-03": 162.059174, 